nm, A
800,000000, -0,069370
799,000000, -0,069497
798,000000, -0,069439
797,000000, -0,068829
796,000000, -0,069102
795,000000, -0,068624
794,000000, -0,067214
793,000000, -0,067049
792,000000, -0,067562
791,000000, -0,067243
790,000000, -0,067033
789,000000, -0,066627
788,000000, -0,065312
787,000000, -0,066036
786,000000, -0,065468
785,000000, -0,065637
784,000000, -0,065234
783,000000, -0,064152
782,000000, -0,064470
781,000000, -0,063920
780,000000, -0,064221
779,000000, -0,063206
778,000000, -0,062756
777,000000, -0,062975
776,000000, -0,062586
775,000000, -0,061960
774,000000, -0,061945
773,000000, -0,061601
772,000000, -0,060689
771,000000, -0,060691
770,000000, -0,060748
769,000000, -0,060479
768,000000, -0,060171
767,000000, -0,060100
766,000000, -0,059867
765,000000, -0,059448
764,000000, -0,059161
763,000000, -0,059175
762,000000, -0,058388
761,000000, -0,058064
760,000000, -0,057394
759,000000, -0,057365
758,000000, -0,057181
757,000000, -0,056916
756,000000, -0,056644
755,000000, -0,056397
754,000000, -0,055262
753,000000, -0,055838
752,000000, -0,055364
751,000000, -0,054880
750,000000, -0,054690
749,000000, -0,054172
748,000000, -0,054090
747,000000, -0,054197
746,000000, -0,053475
745,000000, -0,053491
744,000000, -0,053458
743,000000, -0,053460
742,000000, -0,052106
741,000000, -0,051751
740,000000, -0,051777
739,000000, -0,051519
738,000000, -0,051359
737,000000, -0,051350
736,000000, -0,051201
735,000000, -0,050449
734,000000, -0,050713
733,000000, -0,050535
732,000000, -0,049833
731,000000, -0,049616
730,000000, -0,049949
729,000000, -0,049441
728,000000, -0,048906
727,000000, -0,049067
726,000000, -0,048981
725,000000, -0,048265
724,000000, -0,047992
723,000000, -0,047739
722,000000, -0,047839
721,000000, -0,047473
720,000000, -0,047066
719,000000, -0,047171
718,000000, -0,047027
717,000000, -0,046269
716,000000, -0,046387
715,000000, -0,046555
714,000000, -0,046200
713,000000, -0,045801
712,000000, -0,045396
711,000000, -0,044898
710,000000, -0,045085
709,000000, -0,044933
708,000000, -0,044533
707,000000, -0,044488
706,000000, -0,044561
705,000000, -0,044019
704,000000, -0,043660
703,000000, -0,043550
702,000000, -0,043417
701,000000, -0,043014
700,000000, -0,042736
699,000000, -0,042583
698,000000, -0,042559
697,000000, -0,042217
696,000000, -0,041932
695,000000, -0,041766
694,000000, -0,041630
693,000000, -0,041773
692,000000, -0,041646
691,000000, -0,041284
690,000000, -0,040657
689,000000, -0,040532
688,000000, -0,040444
687,000000, -0,040309
686,000000, -0,040123
685,000000, -0,039562
684,000000, -0,039660
683,000000, -0,039727
682,000000, -0,039627
681,000000, -0,039396
680,000000, -0,039064
679,000000, -0,038859
678,000000, -0,038908
677,000000, -0,038885
676,000000, -0,038351
675,000000, -0,038212
674,000000, -0,038107
673,000000, -0,038054
672,000000, -0,037982
671,000000, -0,037896
670,000000, -0,037667
669,000000, -0,037495
668,000000, -0,037382
667,000000, -0,037132
666,000000, -0,037035
665,000000, -0,036836
664,000000, -0,036732
663,000000, -0,036817
662,000000, -0,036708
661,000000, -0,036446
660,000000, -0,036189
659,000000, -0,036041
658,000000, -0,035991
657,000000, -0,035880
656,000000, -0,035677
655,000000, -0,035684
654,000000, -0,035626
653,000000, -0,035563
652,000000, -0,035488
651,000000, -0,035334
650,000000, -0,035221
649,000000, -0,034893
648,000000, -0,034761
647,000000, -0,034776
646,000000, -0,034724
645,000000, -0,034469
644,000000, -0,034302
643,000000, -0,034406
642,000000, -0,034416
641,000000, -0,034437
640,000000, -0,034218
639,000000, -0,034083
638,000000, -0,033930
637,000000, -0,033809
636,000000, -0,033853
635,000000, -0,033772
634,000000, -0,033700
633,000000, -0,033497
632,000000, -0,033468
631,000000, -0,033501
630,000000, -0,033225
629,000000, -0,033102
628,000000, -0,033119
627,000000, -0,032955
626,000000, -0,032979
625,000000, -0,032956
624,000000, -0,032864
623,000000, -0,032692
622,000000, -0,032512
621,000000, -0,032566
620,000000, -0,032568
619,000000, -0,032387
618,000000, -0,032364
617,000000, -0,032362
616,000000, -0,032312
615,000000, -0,032335
614,000000, -0,032158
613,000000, -0,032097
612,000000, -0,031915
611,000000, -0,031774
610,000000, -0,031832
609,000000, -0,031899
608,000000, -0,031792
607,000000, -0,031652
606,000000, -0,031547
605,000000, -0,031485
604,000000, -0,031484
603,000000, -0,031395
602,000000, -0,031413
601,000000, -0,031469
600,000000, -0,031405
599,000000, -0,031240
598,000000, -0,031109
597,000000, -0,031243
596,000000, -0,031187
595,000000, -0,031118
594,000000, -0,031086
593,000000, -0,031059
592,000000, -0,030931
591,000000, -0,030892
590,000000, -0,030881
589,000000, -0,030857
588,000000, -0,030864
587,000000, -0,030908
586,000000, -0,030906
585,000000, -0,030600
584,000000, -0,030796
583,000000, -0,030692
582,000000, -0,030917
581,000000, -0,030846
580,000000, -0,030650
579,000000, -0,030664
578,000000, -0,030770
577,000000, -0,030694
576,000000, -0,030641
575,000000, -0,030523
574,000000, -0,030616
573,000000, -0,030534
572,000000, -0,030599
571,000000, -0,030454
570,000000, -0,030448
569,000000, -0,030528
568,000000, -0,030445
567,000000, -0,030448
566,000000, -0,030470
565,000000, -0,030253
564,000000, -0,030217
563,000000, -0,030345
562,000000, -0,030707
561,000000, -0,030719
560,000000, -0,030711
559,000000, -0,030844
558,000000, -0,030922
557,000000, -0,030797
556,000000, -0,030804
555,000000, -0,030857
554,000000, -0,030876
553,000000, -0,030796
552,000000, -0,030738
551,000000, -0,030792
550,000000, -0,030718
549,000000, -0,030703
548,000000, -0,030603
547,000000, -0,030814
546,000000, -0,030651
545,000000, -0,030639
544,000000, -0,030718
543,000000, -0,030641
542,000000, -0,030695
541,000000, -0,030871
540,000000, -0,030734
539,000000, -0,030684
538,000000, -0,030735
537,000000, -0,030670
536,000000, -0,030715
535,000000, -0,030609
534,000000, -0,030881
533,000000, -0,030724
532,000000, -0,030768
531,000000, -0,030917
530,000000, -0,030848
529,000000, -0,030811
528,000000, -0,030706
527,000000, -0,030750
526,000000, -0,030971
525,000000, -0,030832
524,000000, -0,030825
523,000000, -0,031065
522,000000, -0,030949
521,000000, -0,031056
520,000000, -0,031151
519,000000, -0,031143
518,000000, -0,031212
517,000000, -0,031187
516,000000, -0,031226
515,000000, -0,031417
514,000000, -0,031231
513,000000, -0,031297
512,000000, -0,031357
511,000000, -0,031290
510,000000, -0,031319
509,000000, -0,031400
508,000000, -0,031387
507,000000, -0,031356
506,000000, -0,031393
505,000000, -0,031399
504,000000, -0,031312
503,000000, -0,031224
502,000000, -0,031265
501,000000, -0,031132
500,000000, -0,031057
499,000000, -0,030908
498,000000, -0,031005
497,000000, -0,030681
496,000000, -0,030755
495,000000, -0,030622
494,000000, -0,030644
493,000000, -0,030377
492,000000, -0,030597
491,000000, -0,030319
490,000000, -0,030479
489,000000, -0,030474
488,000000, -0,030426
487,000000, -0,030473
486,000000, -0,030254
485,000000, -0,030551
484,000000, -0,030675
483,000000, -0,030570
482,000000, -0,030712
481,000000, -0,030624
480,000000, -0,030605
479,000000, -0,030752
478,000000, -0,030650
477,000000, -0,030572
476,000000, -0,030718
475,000000, -0,030849
474,000000, -0,030977
473,000000, -0,030785
472,000000, -0,030832
471,000000, -0,030648
470,000000, -0,030579
469,000000, -0,030465
468,000000, -0,030370
467,000000, -0,030435
466,000000, -0,030473
465,000000, -0,030138
464,000000, -0,029992
463,000000, -0,030059
462,000000, -0,029855
461,000000, -0,029949
460,000000, -0,029787
459,000000, -0,029747
458,000000, -0,029735
457,000000, -0,029637
456,000000, -0,029636
455,000000, -0,029662
454,000000, -0,029818
453,000000, -0,029774
452,000000, -0,029751
451,000000, -0,029704
450,000000, -0,030061
449,000000, -0,030042
448,000000, -0,029920
447,000000, -0,030116
446,000000, -0,030098
445,000000, -0,029950
444,000000, -0,030155
443,000000, -0,029984
442,000000, -0,030035
441,000000, -0,030235
440,000000, -0,030169
439,000000, -0,030277
438,000000, -0,030280
437,000000, -0,030019
436,000000, -0,030172
435,000000, -0,030208
434,000000, -0,030041
433,000000, -0,030016
432,000000, -0,030064
431,000000, -0,029976
430,000000, -0,030093
429,000000, -0,030149
428,000000, -0,029988
427,000000, -0,030158
426,000000, -0,030035
425,000000, -0,030087
424,000000, -0,029939
423,000000, -0,029748
422,000000, -0,029843
421,000000, -0,030111
420,000000, -0,029916
419,000000, -0,029933
418,000000, -0,030062
417,000000, -0,030275
416,000000, -0,030269
415,000000, -0,030128
414,000000, -0,029948
413,000000, -0,029812
412,000000, -0,029745
411,000000, -0,029997
410,000000, -0,029890
409,000000, -0,029799
408,000000, -0,029688
407,000000, -0,029498
406,000000, -0,029491
405,000000, -0,029382
404,000000, -0,029357
403,000000, -0,029589
402,000000, -0,029491
401,000000, -0,029261
400,000000, -0,029154
399,000000, -0,028950
398,000000, -0,029158
397,000000, -0,029094
396,000000, -0,029059
395,000000, -0,028777
394,000000, -0,028523
393,000000, -0,028600
392,000000, -0,028622
391,000000, -0,028485
390,000000, -0,028296
389,000000, -0,028386
388,000000, -0,028339
387,000000, -0,028349
386,000000, -0,028163
385,000000, -0,028212
384,000000, -0,028171
383,000000, -0,027938
382,000000, -0,027911
381,000000, -0,027858
380,000000, -0,027861
379,000000, -0,027674
378,000000, -0,027578
377,000000, -0,027422
376,000000, -0,027822
375,000000, -0,027844
374,000000, -0,027248
373,000000, -0,026880
372,000000, -0,027295
371,000000, -0,026748
370,000000, -0,026610
369,000000, -0,026586
368,000000, -0,026424
367,000000, -0,026585
366,000000, -0,026560
365,000000, -0,026195
364,000000, -0,026233
363,000000, -0,025711
362,000000, -0,025780
361,000000, -0,025867
360,000000, -0,025341
359,000000, -0,025080
358,000000, -0,025124
357,000000, -0,024826
356,000000, -0,024546
355,000000, -0,024421
354,000000, -0,024157
353,000000, -0,023869
352,000000, -0,023663
351,000000, -0,023543
350,000000, -0,023528
349,000000, -0,023229
348,000000, -0,022759
347,000000, -0,022667
346,000000, -0,022631
345,000000, -0,022392
344,000000, -0,022327
343,000000, -0,021907
342,000000, -0,022000
341,000000, -0,021990
340,000000, -0,021425
339,000000, -0,021131
338,000000, -0,020922
337,000000, -0,020819
336,000000, -0,020570
335,000000, -0,019935
334,000000, -0,019562
333,000000, -0,019204
332,000000, -0,018936
331,000000, -0,018764
330,000000, -0,018809
329,000000, -0,018932
328,000000, -0,018811
327,000000, -0,018215
326,000000, -0,017664
325,000000, -0,017488
324,000000, -0,016907
323,000000, -0,016914
322,000000, -0,016799
321,000000, -0,015837
320,000000, -0,015550
319,000000, -0,014541
318,000000, -0,013084
317,000000, -0,012546
316,000000, -0,012320
315,000000, -0,012467
314,000000, -0,011901
313,000000, -0,011051
312,000000, -0,010651
311,000000, -0,010335
310,000000, -0,009746
309,000000, -0,009280
308,000000, -0,008664
307,000000, -0,008490
306,000000, -0,008382
305,000000, -0,007933
304,000000, -0,007123
303,000000, -0,006694
302,000000, -0,006229
301,000000, -0,005639
300,000000, -0,005358
299,000000, -0,004572
298,000000, -0,003947
297,000000, -0,003199
296,000000, -0,002101
295,000000, -0,001442
294,000000, -0,000770
293,000000, -0,000101
292,000000, 0,000836
291,000000, 0,001496
290,000000, 0,002171
289,000000, 0,002597
288,000000, 0,003421
287,000000, 0,004305
286,000000, 0,005070
285,000000, 0,005927
284,000000, 0,006431
283,000000, 0,007092
282,000000, 0,007732
281,000000, 0,008134
280,000000, 0,009220
279,000000, 0,009904
278,000000, 0,010532
277,000000, 0,011142
276,000000, 0,011486
275,000000, 0,012002
274,000000, 0,012273
273,000000, 0,012854
272,000000, 0,013278
271,000000, 0,013538
270,000000, 0,014072
269,000000, 0,014411
268,000000, 0,014903
267,000000, 0,015033
266,000000, 0,014741
265,000000, 0,014909
264,000000, 0,015493
263,000000, 0,015678
262,000000, 0,015787
261,000000, 0,016169
260,000000, 0,016731
259,000000, 0,016871
258,000000, 0,017047
257,000000, 0,017336
256,000000, 0,017788
255,000000, 0,018066
254,000000, 0,018499
253,000000, 0,018746
252,000000, 0,018975
251,000000, 0,019947
250,000000, 0,020742
