nm;A
600.000000;0.008860
599.000000;0.008606
598.000000;0.008602
597.000000;0.008895
596.000000;0.008955
595.000000;0.008552
594.000000;0.008419
593.000000;0.008664
592.000000;0.008464
591.000000;0.008783
590.000000;0.008708
589.000000;0.008660
588.000000;0.008825
587.000000;0.008912
586.000000;0.008752
585.000000;0.008636
584.000000;0.008762
583.000000;0.008623
582.000000;0.008624
581.000000;0.008928
580.000000;0.008990
579.000000;0.008702
578.000000;0.008643
577.000000;0.008816
576.000000;0.008784
575.000000;0.008868
574.000000;0.009000
573.000000;0.008922
572.000000;0.009013
571.000000;0.008897
570.000000;0.009012
569.000000;0.009195
568.000000;0.009234
567.000000;0.008934
566.000000;0.009222
565.000000;0.009299
564.000000;0.009433
563.000000;0.009521
562.000000;0.009491
561.000000;0.009350
560.000000;0.009568
559.000000;0.009722
558.000000;0.009852
557.000000;0.009815
556.000000;0.009882
555.000000;0.009733
554.000000;0.009938
553.000000;0.010045
552.000000;0.010058
551.000000;0.010090
550.000000;0.009906
549.000000;0.010226
548.000000;0.010225
547.000000;0.010395
546.000000;0.010813
545.000000;0.010713
544.000000;0.010850
543.000000;0.010880
542.000000;0.010951
541.000000;0.010931
540.000000;0.011177
539.000000;0.011490
538.000000;0.011662
537.000000;0.011639
536.000000;0.012011
535.000000;0.012169
534.000000;0.012325
533.000000;0.012495
532.000000;0.012805
531.000000;0.013074
530.000000;0.013198
529.000000;0.013382
528.000000;0.013789
527.000000;0.013877
526.000000;0.014045
525.000000;0.014526
524.000000;0.014999
523.000000;0.015268
522.000000;0.015540
521.000000;0.015885
520.000000;0.016449
519.000000;0.016753
518.000000;0.017205
517.000000;0.017661
516.000000;0.018100
515.000000;0.018644
514.000000;0.019120
513.000000;0.019764
512.000000;0.020356
511.000000;0.021049
510.000000;0.021664
509.000000;0.022214
508.000000;0.022904
507.000000;0.023513
506.000000;0.024366
505.000000;0.025073
504.000000;0.025930
503.000000;0.026638
502.000000;0.027451
501.000000;0.028129
500.000000;0.028940
499.000000;0.029806
498.000000;0.030718
497.000000;0.031719
496.000000;0.032636
495.000000;0.033499
494.000000;0.034543
493.000000;0.035486
492.000000;0.036339
491.000000;0.037444
490.000000;0.038634
489.000000;0.039730
488.000000;0.040677
487.000000;0.041919
486.000000;0.043329
485.000000;0.044444
484.000000;0.045571
483.000000;0.046751
482.000000;0.048086
481.000000;0.049526
480.000000;0.050863
479.000000;0.052062
478.000000;0.053482
477.000000;0.054917
476.000000;0.056220
475.000000;0.057743
474.000000;0.059209
473.000000;0.060787
472.000000;0.062214
471.000000;0.063579
470.000000;0.065120
469.000000;0.066639
468.000000;0.068103
467.000000;0.069369
466.000000;0.070781
465.000000;0.072250
464.000000;0.073748
463.000000;0.075061
462.000000;0.076349
461.000000;0.077449
460.000000;0.078734
459.000000;0.080020
458.000000;0.081231
457.000000;0.082447
456.000000;0.083534
455.000000;0.084849
454.000000;0.085988
453.000000;0.086923
452.000000;0.087972
451.000000;0.088791
450.000000;0.089337
449.000000;0.090266
448.000000;0.091298
447.000000;0.091892
446.000000;0.092538
445.000000;0.093114
444.000000;0.093704
443.000000;0.094295
442.000000;0.094478
441.000000;0.094848
440.000000;0.095407
439.000000;0.095635
438.000000;0.095537
437.000000;0.095688
436.000000;0.095977
435.000000;0.096161
434.000000;0.096248
433.000000;0.096156
432.000000;0.095942
431.000000;0.095520
430.000000;0.095326
429.000000;0.095252
428.000000;0.094971
427.000000;0.094742
426.000000;0.094444
425.000000;0.093931
424.000000;0.093560
423.000000;0.093666
422.000000;0.093895
421.000000;0.093637
420.000000;0.093412
419.000000;0.093704
418.000000;0.093952
417.000000;0.094523
416.000000;0.094827
415.000000;0.095501
414.000000;0.096853
413.000000;0.098182
412.000000;0.099673
411.000000;0.102029
410.000000;0.104889
409.000000;0.107659
408.000000;0.111423
407.000000;0.115987
406.000000;0.120584
405.000000;0.125884
404.000000;0.132026
403.000000;0.138700
402.000000;0.146422
401.000000;0.154695
400.000000;0.163613
399.000000;0.173220
398.000000;0.183578
397.000000;0.194898
396.000000;0.206990
395.000000;0.219723
394.000000;0.233189
393.000000;0.247773
392.000000;0.263341
391.000000;0.279919
390.000000;0.297665
389.000000;0.316318
388.000000;0.337187
387.000000;0.358706
386.000000;0.381597
385.000000;0.405572
384.000000;0.429793
383.000000;0.454512
382.000000;0.479128
381.000000;0.503749
380.000000;0.528030
379.000000;0.553162
378.000000;0.574755
377.000000;0.592812
376.000000;0.608702
375.000000;0.622787
374.000000;0.636633
373.000000;0.646062
372.000000;0.654701
371.000000;0.663797
370.000000;0.671113
369.000000;0.678029
368.000000;0.684475
367.000000;0.692609
366.000000;0.700950
365.000000;0.709461
364.000000;0.718531
363.000000;0.727971
362.000000;0.736679
361.000000;0.744971
360.000000;0.753544
359.000000;0.757826
358.000000;0.760249
357.000000;0.760327
356.000000;0.759850
355.000000;0.755597
354.000000;0.747810
353.000000;0.739993
352.000000;0.731648
351.000000;0.722387
350.000000;0.712735
349.000000;0.701640
348.000000;0.692538
347.000000;0.683407
346.000000;0.676015
345.000000;0.669941
344.000000;0.663977
343.000000;0.658738
342.000000;0.653011
341.000000;0.648877
340.000000;0.646233
339.000000;0.643382
338.000000;0.642060
337.000000;0.646421
336.000000;0.651930
335.000000;0.662972
334.000000;0.681652
333.000000;0.706591
332.000000;0.745419
331.000000;0.797217
330.000000;0.867353
329.000000;0.957051
328.000000;1.076386
327.000000;1.225200
326.000000;1.417860
325.000000;1.660917
324.000000;1.948735
323.000000;2.298873
322.000000;2.793114
321.000000;3.422066
320.000000;3.933458
319.000000;10.000000
318.000000;10.000000
317.000000;10.000000
316.000000;10.000000
315.000000;10.000000
314.000000;10.000000
313.000000;10.000000
312.000000;10.000000
311.000000;10.000000
310.000000;10.000000
309.000000;10.000000
308.000000;10.000000
307.000000;10.000000
306.000000;10.000000
305.000000;10.000000
304.000000;5.171015
303.000000;10.000000
302.000000;10.000000
301.000000;10.000000
300.000000;10.000000
299.000000;10.000000
298.000000;10.000000
297.000000;10.000000
296.000000;10.000000
295.000000;10.000000
294.000000;10.000000
293.000000;10.000000
292.000000;4.767008
291.000000;10.000000
290.000000;10.000000
289.000000;10.000000
288.000000;10.000000
287.000000;10.000000
286.000000;10.000000
285.000000;10.000000
284.000000;10.000000
283.000000;10.000000
282.000000;10.000000
281.000000;10.000000
280.000000;10.000000
279.000000;10.000000
278.000000;10.000000
277.000000;10.000000
276.000000;10.000000
275.000000;10.000000
274.000000;10.000000
273.000000;10.000000
272.000000;10.000000
271.000000;10.000000
270.000000;10.000000
269.000000;10.000000
268.000000;10.000000
267.000000;10.000000
266.000000;10.000000
265.000000;10.000000
264.000000;10.000000
263.000000;10.000000
262.000000;10.000000
261.000000;10.000000
260.000000;10.000000
259.000000;10.000000
258.000000;10.000000
257.000000;10.000000
256.000000;10.000000
255.000000;10.000000
254.000000;10.000000
253.000000;10.000000
252.000000;10.000000
251.000000;10.000000
250.000000;10.000000
