nm;A
600.000000;0.032171
599.000000;0.032338
598.000000;0.032324
597.000000;0.032200
596.000000;0.032184
595.000000;0.031972
594.000000;0.032346
593.000000;0.031954
592.000000;0.032387
591.000000;0.032081
590.000000;0.032315
589.000000;0.032144
588.000000;0.031977
587.000000;0.032273
586.000000;0.032414
585.000000;0.032509
584.000000;0.032521
583.000000;0.032644
582.000000;0.032458
581.000000;0.032379
580.000000;0.032602
579.000000;0.032651
578.000000;0.032924
577.000000;0.032947
576.000000;0.032942
575.000000;0.032880
574.000000;0.032957
573.000000;0.032884
572.000000;0.032950
571.000000;0.033141
570.000000;0.033144
569.000000;0.033145
568.000000;0.032980
567.000000;0.032973
566.000000;0.033363
565.000000;0.033312
564.000000;0.033277
563.000000;0.033367
562.000000;0.033433
561.000000;0.033760
560.000000;0.033821
559.000000;0.034004
558.000000;0.033912
557.000000;0.034254
556.000000;0.034066
555.000000;0.034037
554.000000;0.034363
553.000000;0.034642
552.000000;0.034787
551.000000;0.034934
550.000000;0.034923
549.000000;0.035130
548.000000;0.035085
547.000000;0.035306
546.000000;0.035567
545.000000;0.035729
544.000000;0.035831
543.000000;0.036134
542.000000;0.036157
541.000000;0.036378
540.000000;0.036843
539.000000;0.036953
538.000000;0.037118
537.000000;0.037518
536.000000;0.037646
535.000000;0.037867
534.000000;0.038278
533.000000;0.038723
532.000000;0.038800
531.000000;0.039154
530.000000;0.039474
529.000000;0.039824
528.000000;0.040305
527.000000;0.040677
526.000000;0.041105
525.000000;0.041286
524.000000;0.041973
523.000000;0.042242
522.000000;0.042852
521.000000;0.043278
520.000000;0.043624
519.000000;0.044205
518.000000;0.044833
517.000000;0.045367
516.000000;0.045999
515.000000;0.046684
514.000000;0.047373
513.000000;0.048115
512.000000;0.048603
511.000000;0.049339
510.000000;0.050125
509.000000;0.050907
508.000000;0.051735
507.000000;0.052596
506.000000;0.053237
505.000000;0.054138
504.000000;0.054993
503.000000;0.056091
502.000000;0.056923
501.000000;0.057737
500.000000;0.058797
499.000000;0.059826
498.000000;0.061055
497.000000;0.062245
496.000000;0.063416
495.000000;0.064353
494.000000;0.065346
493.000000;0.066539
492.000000;0.067813
491.000000;0.069181
490.000000;0.070400
489.000000;0.071612
488.000000;0.072805
487.000000;0.074030
486.000000;0.075531
485.000000;0.077245
484.000000;0.078573
483.000000;0.079876
482.000000;0.081306
481.000000;0.082628
480.000000;0.084119
479.000000;0.085481
478.000000;0.086894
477.000000;0.088438
476.000000;0.090084
475.000000;0.091335
474.000000;0.092596
473.000000;0.094094
472.000000;0.095529
471.000000;0.097076
470.000000;0.098524
469.000000;0.099915
468.000000;0.101215
467.000000;0.102467
466.000000;0.103816
465.000000;0.105089
464.000000;0.106277
463.000000;0.107608
462.000000;0.108841
461.000000;0.109882
460.000000;0.110870
459.000000;0.111889
458.000000;0.113005
457.000000;0.113885
456.000000;0.114710
455.000000;0.115423
454.000000;0.116090
453.000000;0.116817
452.000000;0.117350
451.000000;0.117606
450.000000;0.117970
449.000000;0.118501
448.000000;0.118963
447.000000;0.119180
446.000000;0.119359
445.000000;0.119337
444.000000;0.119195
443.000000;0.119054
442.000000;0.118686
441.000000;0.118340
440.000000;0.117830
439.000000;0.117186
438.000000;0.116703
437.000000;0.116084
436.000000;0.115141
435.000000;0.114192
434.000000;0.113265
433.000000;0.112202
432.000000;0.111084
431.000000;0.109897
430.000000;0.108861
429.000000;0.107846
428.000000;0.106216
427.000000;0.104635
426.000000;0.103339
425.000000;0.101611
424.000000;0.100239
423.000000;0.098763
422.000000;0.096875
421.000000;0.094994
420.000000;0.093381
419.000000;0.091939
418.000000;0.090174
417.000000;0.088549
416.000000;0.087081
415.000000;0.085117
414.000000;0.083370
413.000000;0.081724
412.000000;0.080170
411.000000;0.078650
410.000000;0.077137
409.000000;0.075364
408.000000;0.074040
407.000000;0.072725
406.000000;0.071288
405.000000;0.070102
404.000000;0.069197
403.000000;0.067958
402.000000;0.066541
401.000000;0.065468
400.000000;0.064514
399.000000;0.063654
398.000000;0.062754
397.000000;0.061701
396.000000;0.060799
395.000000;0.060410
394.000000;0.060015
393.000000;0.059538
392.000000;0.059351
391.000000;0.059520
390.000000;0.059286
389.000000;0.058875
388.000000;0.058938
387.000000;0.059174
386.000000;0.059334
385.000000;0.059728
384.000000;0.059903
383.000000;0.060249
382.000000;0.060918
381.000000;0.061410
380.000000;0.061848
379.000000;0.062149
378.000000;0.062230
377.000000;0.062617
376.000000;0.063685
375.000000;0.064379
374.000000;0.064886
373.000000;0.065051
372.000000;0.064006
371.000000;0.063911
370.000000;0.065311
369.000000;0.065779
368.000000;0.065924
367.000000;0.066170
366.000000;0.067359
365.000000;0.067973
364.000000;0.069413
363.000000;0.070070
362.000000;0.071125
361.000000;0.072192
360.000000;0.073891
359.000000;0.075201
358.000000;0.076571
357.000000;0.079006
356.000000;0.080924
355.000000;0.082687
354.000000;0.085505
353.000000;0.088399
352.000000;0.090400
351.000000;0.093704
350.000000;0.097198
349.000000;0.100969
348.000000;0.104714
347.000000;0.109163
346.000000;0.113857
345.000000;0.119094
344.000000;0.124509
343.000000;0.129559
342.000000;0.135938
341.000000;0.141955
340.000000;0.148491
339.000000;0.155393
338.000000;0.162163
337.000000;0.169745
336.000000;0.176954
335.000000;0.184612
334.000000;0.192422
333.000000;0.200768
332.000000;0.208439
331.000000;0.215204
330.000000;0.225067
329.000000;0.233120
328.000000;0.240425
327.000000;0.248687
326.000000;0.258109
325.000000;0.265844
324.000000;0.273203
323.000000;0.280760
322.000000;0.287882
321.000000;0.295418
320.000000;0.301591
319.000000;0.308843
318.000000;0.313261
317.000000;0.319185
316.000000;0.323702
315.000000;0.326969
314.000000;0.330754
313.000000;0.333183
312.000000;0.333900
311.000000;0.336192
310.000000;0.336156
309.000000;0.335931
308.000000;0.335823
307.000000;0.334212
306.000000;0.333520
305.000000;0.330117
304.000000;0.327674
303.000000;0.322913
302.000000;0.319887
301.000000;0.317457
300.000000;0.312678
299.000000;0.308501
298.000000;0.303944
297.000000;0.299059
296.000000;0.295715
295.000000;0.289832
294.000000;0.284403
293.000000;0.280501
292.000000;0.275152
291.000000;0.269095
290.000000;0.263540
289.000000;0.258807
288.000000;0.253452
287.000000;0.247949
286.000000;0.243332
285.000000;0.238040
284.000000;0.232571
283.000000;0.228773
282.000000;0.224393
281.000000;0.220260
280.000000;0.215640
279.000000;0.213082
278.000000;0.211314
277.000000;0.208803
276.000000;0.207384
275.000000;0.207351
274.000000;0.208568
273.000000;0.210399
272.000000;0.213753
271.000000;0.218229
270.000000;0.224213
269.000000;0.230142
268.000000;0.238242
267.000000;0.247011
266.000000;0.255692
265.000000;0.264568
264.000000;0.275157
263.000000;0.286093
262.000000;0.296939
261.000000;0.307907
260.000000;0.318718
259.000000;0.329672
258.000000;0.340818
257.000000;0.353485
256.000000;0.363917
255.000000;0.373957
254.000000;0.383433
253.000000;0.392697
252.000000;0.400779
251.000000;0.406855
250.000000;0.412706
