nm, A
600,000000, 0,033181
599,000000, 0,033592
598,000000, 0,033046
597,000000, 0,033154
596,000000, 0,033397
595,000000, 0,033135
594,000000, 0,033140
593,000000, 0,033079
592,000000, 0,033378
591,000000, 0,033288
590,000000, 0,033260
589,000000, 0,033322
588,000000, 0,033134
587,000000, 0,033181
586,000000, 0,033448
585,000000, 0,033574
584,000000, 0,033698
583,000000, 0,033632
582,000000, 0,033314
581,000000, 0,033371
580,000000, 0,033559
579,000000, 0,033504
578,000000, 0,033733
577,000000, 0,033816
576,000000, 0,033806
575,000000, 0,033530
574,000000, 0,033426
573,000000, 0,033887
572,000000, 0,033741
571,000000, 0,033823
570,000000, 0,034023
569,000000, 0,033866
568,000000, 0,033724
567,000000, 0,033727
566,000000, 0,033926
565,000000, 0,033785
564,000000, 0,033889
563,000000, 0,034051
562,000000, 0,033924
561,000000, 0,034097
560,000000, 0,034202
559,000000, 0,034353
558,000000, 0,034145
557,000000, 0,034286
556,000000, 0,034126
555,000000, 0,034101
554,000000, 0,034241
553,000000, 0,034518
552,000000, 0,034654
551,000000, 0,034495
550,000000, 0,034586
549,000000, 0,034758
548,000000, 0,034630
547,000000, 0,034899
546,000000, 0,035070
545,000000, 0,035046
544,000000, 0,035220
543,000000, 0,035243
542,000000, 0,035067
541,000000, 0,035353
540,000000, 0,035425
539,000000, 0,035701
538,000000, 0,035794
537,000000, 0,035821
536,000000, 0,035999
535,000000, 0,035947
534,000000, 0,036069
533,000000, 0,036547
532,000000, 0,036302
531,000000, 0,036308
530,000000, 0,036553
529,000000, 0,036912
528,000000, 0,037089
527,000000, 0,037139
526,000000, 0,037339
525,000000, 0,037578
524,000000, 0,037944
523,000000, 0,037972
522,000000, 0,038238
521,000000, 0,038309
520,000000, 0,038613
519,000000, 0,038907
518,000000, 0,039256
517,000000, 0,039530
516,000000, 0,039845
515,000000, 0,040199
514,000000, 0,040535
513,000000, 0,040910
512,000000, 0,041162
511,000000, 0,041505
510,000000, 0,041895
509,000000, 0,042436
508,000000, 0,042920
507,000000, 0,043238
506,000000, 0,043570
505,000000, 0,044236
504,000000, 0,044633
503,000000, 0,045062
502,000000, 0,045539
501,000000, 0,046150
500,000000, 0,046794
499,000000, 0,047380
498,000000, 0,048250
497,000000, 0,048917
496,000000, 0,049586
495,000000, 0,050364
494,000000, 0,050816
493,000000, 0,051424
492,000000, 0,052293
491,000000, 0,053236
490,000000, 0,053912
489,000000, 0,054764
488,000000, 0,055692
487,000000, 0,056677
486,000000, 0,057459
485,000000, 0,058610
484,000000, 0,059385
483,000000, 0,060086
482,000000, 0,061166
481,000000, 0,062192
480,000000, 0,063211
479,000000, 0,064211
478,000000, 0,065295
477,000000, 0,066513
476,000000, 0,067493
475,000000, 0,068383
474,000000, 0,069417
473,000000, 0,070491
472,000000, 0,071634
471,000000, 0,072897
470,000000, 0,074060
469,000000, 0,075175
468,000000, 0,076226
467,000000, 0,077190
466,000000, 0,078377
465,000000, 0,079587
464,000000, 0,080560
463,000000, 0,081662
462,000000, 0,082754
461,000000, 0,083859
460,000000, 0,084891
459,000000, 0,085981
458,000000, 0,086959
457,000000, 0,087859
456,000000, 0,089018
455,000000, 0,090082
454,000000, 0,091065
453,000000, 0,091811
452,000000, 0,092490
451,000000, 0,093387
450,000000, 0,094466
449,000000, 0,095450
448,000000, 0,096111
447,000000, 0,096631
446,000000, 0,097539
445,000000, 0,098242
444,000000, 0,098781
443,000000, 0,099312
442,000000, 0,099863
441,000000, 0,100277
440,000000, 0,100718
439,000000, 0,101340
438,000000, 0,101828
437,000000, 0,101907
436,000000, 0,102112
435,000000, 0,102475
434,000000, 0,102768
433,000000, 0,103220
432,000000, 0,103385
431,000000, 0,103370
430,000000, 0,103642
429,000000, 0,104037
428,000000, 0,104062
427,000000, 0,104049
426,000000, 0,104338
425,000000, 0,104457
424,000000, 0,104635
423,000000, 0,104991
422,000000, 0,105117
421,000000, 0,105220
420,000000, 0,105905
419,000000, 0,106571
418,000000, 0,106986
417,000000, 0,107712
416,000000, 0,108862
415,000000, 0,109927
414,000000, 0,111250
413,000000, 0,112891
412,000000, 0,115121
411,000000, 0,117680
410,000000, 0,120239
409,000000, 0,123186
408,000000, 0,126854
407,000000, 0,130961
406,000000, 0,135575
405,000000, 0,140871
404,000000, 0,146629
403,000000, 0,152694
402,000000, 0,159217
401,000000, 0,166636
400,000000, 0,174508
399,000000, 0,183061
398,000000, 0,192284
397,000000, 0,201803
396,000000, 0,212187
395,000000, 0,223903
394,000000, 0,236466
393,000000, 0,249281
392,000000, 0,263033
391,000000, 0,278024
390,000000, 0,294102
389,000000, 0,310811
388,000000, 0,328974
387,000000, 0,348530
386,000000, 0,368883
385,000000, 0,390026
384,000000, 0,411113
383,000000, 0,433061
382,000000, 0,454440
381,000000, 0,475202
380,000000, 0,496008
379,000000, 0,518152
378,000000, 0,536914
377,000000, 0,552582
376,000000, 0,566674
375,000000, 0,579369
374,000000, 0,590967
373,000000, 0,601111
372,000000, 0,608470
371,000000, 0,616060
370,000000, 0,624226
369,000000, 0,630724
368,000000, 0,638037
367,000000, 0,645949
366,000000, 0,653276
365,000000, 0,660038
364,000000, 0,667727
363,000000, 0,675783
362,000000, 0,682737
361,000000, 0,688598
360,000000, 0,694197
359,000000, 0,698531
358,000000, 0,700827
357,000000, 0,701181
356,000000, 0,699941
355,000000, 0,695106
354,000000, 0,689395
353,000000, 0,683118
352,000000, 0,674505
351,000000, 0,666178
350,000000, 0,657579
349,000000, 0,647733
348,000000, 0,637912
347,000000, 0,628827
346,000000, 0,620104
345,000000, 0,611697
344,000000, 0,602872
343,000000, 0,594550
342,000000, 0,585551
341,000000, 0,575575
340,000000, 0,565737
339,000000, 0,554993
338,000000, 0,543772
337,000000, 0,531852
336,000000, 0,518067
335,000000, 0,505797
334,000000, 0,492800
333,000000, 0,480554
332,000000, 0,467374
331,000000, 0,454743
330,000000, 0,443762
329,000000, 0,432998
328,000000, 0,421484
327,000000, 0,410555
326,000000, 0,401442
325,000000, 0,390671
324,000000, 0,381126
323,000000, 0,371775
322,000000, 0,361296
321,000000, 0,353485
320,000000, 0,344492
319,000000, 0,336130
318,000000, 0,327318
317,000000, 0,319616
316,000000, 0,312492
315,000000, 0,305325
314,000000, 0,299913
313,000000, 0,293996
312,000000, 0,287892
311,000000, 0,282844
310,000000, 0,277243
309,000000, 0,271969
308,000000, 0,267382
307,000000, 0,263077
306,000000, 0,259912
305,000000, 0,255341
304,000000, 0,251767
303,000000, 0,248264
302,000000, 0,245157
301,000000, 0,242786
300,000000, 0,237598
299,000000, 0,234595
298,000000, 0,230230
297,000000, 0,228438
296,000000, 0,225973
295,000000, 0,221952
294,000000, 0,219221
293,000000, 0,216730
292,000000, 0,213643
291,000000, 0,209875
290,000000, 0,206773
289,000000, 0,203752
288,000000, 0,200480
287,000000, 0,197853
286,000000, 0,193907
285,000000, 0,191758
284,000000, 0,187143
283,000000, 0,185676
282,000000, 0,181710
281,000000, 0,178023
280,000000, 0,175216
279,000000, 0,173295
278,000000, 0,170398
277,000000, 0,168231
276,000000, 0,166476
275,000000, 0,165371
274,000000, 0,164194
273,000000, 0,163909
272,000000, 0,163874
271,000000, 0,164044
270,000000, 0,165321
269,000000, 0,166520
268,000000, 0,168669
267,000000, 0,171871
266,000000, 0,175927
265,000000, 0,180983
264,000000, 0,188174
263,000000, 0,197717
262,000000, 0,209330
261,000000, 0,224556
260,000000, 0,242340
259,000000, 0,262890
258,000000, 0,285237
257,000000, 0,307614
256,000000, 0,328382
255,000000, 0,346948
254,000000, 0,362983
253,000000, 0,378715
252,000000, 0,394474
251,000000, 0,409265
250,000000, 0,425859
