nm, A
800,000000, 0,001296
799,000000, 0,000824
798,000000, 0,000849
797,000000, -0,000410
796,000000, -0,000484
795,000000, 0,000165
794,000000, 0,000449
793,000000, -0,000471
792,000000, 0,000939
791,000000, 0,000533
790,000000, 0,000370
789,000000, 0,001351
788,000000, 0,000707
787,000000, 0,000999
786,000000, 0,000072
785,000000, 0,000537
784,000000, 0,000610
783,000000, 0,000599
782,000000, 0,000750
781,000000, 0,000233
780,000000, 0,000881
779,000000, 0,000419
778,000000, -0,000274
777,000000, 0,000177
776,000000, 0,000533
775,000000, 0,000455
774,000000, 0,000714
773,000000, 0,000204
772,000000, -0,000344
771,000000, -0,000001
770,000000, 0,001010
769,000000, 0,000119
768,000000, -0,000193
767,000000, 0,000331
766,000000, 0,000275
765,000000, 0,000256
764,000000, 0,000308
763,000000, 0,000704
762,000000, 0,000760
761,000000, 0,000438
760,000000, 0,000505
759,000000, 0,000384
758,000000, 0,000238
757,000000, 0,000114
756,000000, 0,000660
755,000000, 0,000536
754,000000, 0,000500
753,000000, 0,000259
752,000000, 0,000072
751,000000, 0,000278
750,000000, -0,000320
749,000000, -0,000272
748,000000, 0,000629
747,000000, 0,000112
746,000000, 0,000562
745,000000, 0,000265
744,000000, 0,000220
743,000000, 0,000362
742,000000, -0,000421
741,000000, 0,000048
740,000000, 0,000180
739,000000, -0,000114
738,000000, 0,000526
737,000000, 0,000158
736,000000, 0,000728
735,000000, 0,000707
734,000000, -0,000039
733,000000, 0,000206
732,000000, -0,000214
731,000000, 0,000257
730,000000, 0,000021
729,000000, -0,000061
728,000000, 0,000507
727,000000, 0,000274
726,000000, 0,000292
725,000000, -0,000303
724,000000, -0,000107
723,000000, 0,000297
722,000000, 0,000636
721,000000, 0,000267
720,000000, -0,000047
719,000000, -0,000472
718,000000, -0,000388
717,000000, 0,000279
716,000000, 0,000026
715,000000, -0,000093
714,000000, 0,000457
713,000000, 0,000360
712,000000, 0,000072
711,000000, -0,000511
710,000000, -0,000123
709,000000, 0,000183
708,000000, 0,000068
707,000000, -0,000215
706,000000, 0,000168
705,000000, -0,000031
704,000000, 0,000034
703,000000, 0,000204
702,000000, 0,000216
701,000000, 0,000017
700,000000, 0,000127
699,000000, 0,000043
698,000000, -0,000327
697,000000, -0,000108
696,000000, 0,000213
695,000000, 0,000324
694,000000, 0,000277
693,000000, -0,000036
692,000000, 0,000171
691,000000, 0,000009
690,000000, -0,000037
689,000000, -0,000478
688,000000, -0,000419
687,000000, -0,000063
686,000000, -0,000193
685,000000, -0,000232
684,000000, 0,000147
683,000000, -0,000039
682,000000, -0,000060
681,000000, -0,000086
680,000000, 0,000030
679,000000, -0,000065
678,000000, -0,000466
677,000000, -0,000198
676,000000, -0,000077
675,000000, -0,000194
674,000000, -0,000215
673,000000, -0,000390
672,000000, -0,000277
671,000000, -0,000269
670,000000, -0,000384
669,000000, -0,000393
668,000000, -0,000289
667,000000, -0,000259
666,000000, -0,000257
665,000000, 0,000003
664,000000, -0,000087
663,000000, -0,000151
662,000000, -0,000079
661,000000, -0,000070
660,000000, -0,000298
659,000000, -0,000397
658,000000, -0,000086
657,000000, -0,000142
656,000000, -0,000358
655,000000, -0,000356
654,000000, -0,000425
653,000000, -0,000649
652,000000, -0,000277
651,000000, -0,000203
650,000000, -0,000413
649,000000, -0,000340
648,000000, -0,000304
647,000000, -0,000499
646,000000, -0,000640
645,000000, -0,000577
644,000000, -0,000454
643,000000, -0,000370
642,000000, -0,000332
641,000000, -0,000400
640,000000, -0,000396
639,000000, -0,000480
638,000000, -0,000361
637,000000, -0,000293
636,000000, -0,000440
635,000000, -0,000416
634,000000, -0,000539
633,000000, -0,000561
632,000000, -0,000595
631,000000, -0,000381
630,000000, -0,000258
629,000000, -0,000286
628,000000, -0,000316
627,000000, -0,000358
626,000000, -0,000472
625,000000, -0,000478
624,000000, -0,000412
623,000000, -0,000340
622,000000, -0,000482
621,000000, -0,000442
620,000000, -0,000404
619,000000, -0,000342
618,000000, -0,000307
617,000000, -0,000457
616,000000, -0,000434
615,000000, -0,000315
614,000000, -0,000559
613,000000, -0,000522
612,000000, -0,000494
611,000000, -0,000489
610,000000, -0,000310
609,000000, -0,000542
608,000000, -0,000508
607,000000, -0,000655
606,000000, -0,000834
605,000000, -0,000523
604,000000, -0,000393
603,000000, -0,000572
602,000000, -0,000760
601,000000, -0,000779
600,000000, -0,000729
599,000000, -0,000637
598,000000, -0,000596
597,000000, -0,000435
596,000000, -0,000498
595,000000, -0,000540
594,000000, -0,000571
593,000000, -0,000413
592,000000, -0,000498
591,000000, -0,000609
590,000000, -0,000687
589,000000, -0,000659
588,000000, -0,000555
587,000000, -0,000781
586,000000, -0,000745
585,000000, -0,000790
584,000000, -0,000767
583,000000, -0,000536
582,000000, -0,000402
581,000000, -0,000459
580,000000, -0,000454
579,000000, -0,000495
578,000000, -0,000343
577,000000, -0,000388
576,000000, -0,000736
575,000000, -0,000674
574,000000, -0,000499
573,000000, -0,000649
572,000000, -0,000588
571,000000, -0,000683
570,000000, -0,000707
569,000000, -0,000469
568,000000, -0,000482
567,000000, -0,000678
566,000000, -0,000558
565,000000, -0,000349
564,000000, -0,000353
563,000000, -0,000430
562,000000, -0,000431
561,000000, -0,000345
560,000000, -0,000518
559,000000, -0,000471
558,000000, -0,000527
557,000000, -0,000278
556,000000, -0,000509
555,000000, -0,000470
554,000000, -0,000054
553,000000, -0,000297
552,000000, -0,000281
551,000000, -0,000055
550,000000, -0,000056
549,000000, 0,000050
548,000000, -0,000045
547,000000, 0,000208
546,000000, 0,000111
545,000000, 0,000106
544,000000, 0,000049
543,000000, 0,000300
542,000000, 0,000366
541,000000, 0,000490
540,000000, 0,000515
539,000000, 0,000744
538,000000, 0,000776
537,000000, 0,000818
536,000000, 0,000725
535,000000, 0,000800
534,000000, 0,000922
533,000000, 0,001266
532,000000, 0,001051
531,000000, 0,001128
530,000000, 0,001313
529,000000, 0,001335
528,000000, 0,001612
527,000000, 0,001811
526,000000, 0,001642
525,000000, 0,001822
524,000000, 0,001892
523,000000, 0,002185
522,000000, 0,002359
521,000000, 0,002517
520,000000, 0,002712
519,000000, 0,002732
518,000000, 0,002923
517,000000, 0,003002
516,000000, 0,003197
515,000000, 0,003462
514,000000, 0,003653
513,000000, 0,003924
512,000000, 0,004221
511,000000, 0,004517
510,000000, 0,004861
509,000000, 0,004832
508,000000, 0,005171
507,000000, 0,005474
506,000000, 0,005479
505,000000, 0,005919
504,000000, 0,006248
503,000000, 0,006555
502,000000, 0,006999
501,000000, 0,007438
500,000000, 0,007691
499,000000, 0,007630
498,000000, 0,008095
497,000000, 0,008552
496,000000, 0,008844
495,000000, 0,009257
494,000000, 0,009927
493,000000, 0,009865
492,000000, 0,010581
491,000000, 0,011042
490,000000, 0,011575
489,000000, 0,011929
488,000000, 0,012290
487,000000, 0,012740
486,000000, 0,013291
485,000000, 0,013702
484,000000, 0,014242
483,000000, 0,014544
482,000000, 0,015029
481,000000, 0,015370
480,000000, 0,015988
479,000000, 0,016562
478,000000, 0,017140
477,000000, 0,017526
476,000000, 0,018215
475,000000, 0,018818
474,000000, 0,019567
473,000000, 0,019984
472,000000, 0,020671
471,000000, 0,020997
470,000000, 0,021835
469,000000, 0,022140
468,000000, 0,023024
467,000000, 0,023235
466,000000, 0,024042
465,000000, 0,024604
464,000000, 0,025141
463,000000, 0,025740
462,000000, 0,026555
461,000000, 0,026826
460,000000, 0,027376
459,000000, 0,027845
458,000000, 0,028394
457,000000, 0,029097
456,000000, 0,029735
455,000000, 0,030274
454,000000, 0,030841
453,000000, 0,031441
452,000000, 0,031826
451,000000, 0,031925
450,000000, 0,032339
449,000000, 0,032862
448,000000, 0,033452
447,000000, 0,033816
446,000000, 0,034244
445,000000, 0,034401
444,000000, 0,034771
443,000000, 0,035248
442,000000, 0,035908
441,000000, 0,035524
440,000000, 0,035737
439,000000, 0,036457
438,000000, 0,036377
437,000000, 0,036190
436,000000, 0,036443
435,000000, 0,036287
434,000000, 0,036079
433,000000, 0,036255
432,000000, 0,036354
431,000000, 0,035968
430,000000, 0,036057
429,000000, 0,035838
428,000000, 0,035641
427,000000, 0,035318
426,000000, 0,034972
425,000000, 0,034723
424,000000, 0,034155
423,000000, 0,033716
422,000000, 0,033404
421,000000, 0,032990
420,000000, 0,032774
419,000000, 0,032031
418,000000, 0,031640
417,000000, 0,031051
416,000000, 0,030326
415,000000, 0,029940
414,000000, 0,029028
413,000000, 0,028129
412,000000, 0,027635
411,000000, 0,026695
410,000000, 0,025964
409,000000, 0,025435
408,000000, 0,024542
407,000000, 0,023925
406,000000, 0,023050
405,000000, 0,022055
404,000000, 0,021442
403,000000, 0,020791
402,000000, 0,019852
401,000000, 0,018687
400,000000, 0,017942
399,000000, 0,017056
398,000000, 0,016330
397,000000, 0,015624
396,000000, 0,015083
395,000000, 0,014245
394,000000, 0,013581
393,000000, 0,012820
392,000000, 0,012133
391,000000, 0,011134
390,000000, 0,010607
389,000000, 0,010178
388,000000, 0,009355
387,000000, 0,008581
386,000000, 0,008476
385,000000, 0,008104
384,000000, 0,007168
383,000000, 0,006673
382,000000, 0,006274
381,000000, 0,005910
380,000000, 0,005720
379,000000, 0,004743
378,000000, 0,003596
377,000000, 0,004113
376,000000, 0,004296
375,000000, 0,004349
374,000000, 0,003661
373,000000, 0,003609
372,000000, 0,003895
371,000000, 0,004076
370,000000, 0,004498
369,000000, 0,003984
368,000000, 0,004426
367,000000, 0,005386
366,000000, 0,006803
365,000000, 0,009196
364,000000, 0,012118
363,000000, 0,015129
362,000000, 0,019573
361,000000, 0,025598
360,000000, 0,033060
359,000000, 0,043081
358,000000, 0,054215
357,000000, 0,066827
356,000000, 0,082579
355,000000, 0,100469
354,000000, 0,119789
353,000000, 0,140057
352,000000, 0,161064
351,000000, 0,182695
350,000000, 0,204160
349,000000, 0,224116
348,000000, 0,242850
347,000000, 0,260882
346,000000, 0,277414
345,000000, 0,292522
344,000000, 0,307156
343,000000, 0,323077
342,000000, 0,339844
341,000000, 0,356983
340,000000, 0,375970
339,000000, 0,396548
338,000000, 0,418628
337,000000, 0,442990
336,000000, 0,467680
335,000000, 0,492199
334,000000, 0,516320
333,000000, 0,537884
332,000000, 0,558002
331,000000, 0,575485
330,000000, 0,589925
329,000000, 0,602100
328,000000, 0,612931
327,000000, 0,622604
326,000000, 0,630878
325,000000, 0,638888
324,000000, 0,646358
323,000000, 0,654445
322,000000, 0,663915
321,000000, 0,672612
320,000000, 0,679727
319,000000, 0,685206
318,000000, 0,688949
317,000000, 0,691465
316,000000, 0,691675
315,000000, 0,690538
314,000000, 0,688959
313,000000, 0,685350
312,000000, 0,680022
311,000000, 0,674358
310,000000, 0,668608
309,000000, 0,662000
308,000000, 0,654286
307,000000, 0,646676
306,000000, 0,638733
305,000000, 0,629749
304,000000, 0,620711
303,000000, 0,611301
302,000000, 0,600981
301,000000, 0,589529
300,000000, 0,577435
299,000000, 0,564780
298,000000, 0,552042
297,000000, 0,539117
296,000000, 0,525908
295,000000, 0,512820
294,000000, 0,500057
293,000000, 0,487288
292,000000, 0,474481
291,000000, 0,461513
290,000000, 0,447954
289,000000, 0,435160
288,000000, 0,422480
287,000000, 0,408738
286,000000, 0,395887
285,000000, 0,383035
284,000000, 0,370045
283,000000, 0,358260
282,000000, 0,346829
281,000000, 0,334582
280,000000, 0,322769
279,000000, 0,311973
278,000000, 0,300834
277,000000, 0,289904
276,000000, 0,279575
275,000000, 0,269780
274,000000, 0,259706
273,000000, 0,250508
272,000000, 0,241281
271,000000, 0,231632
270,000000, 0,223349
269,000000, 0,215438
268,000000, 0,207508
267,000000, 0,200695
266,000000, 0,194708
265,000000, 0,188635
264,000000, 0,183381
263,000000, 0,179914
262,000000, 0,177220
261,000000, 0,175598
260,000000, 0,175413
259,000000, 0,176571
258,000000, 0,179750
257,000000, 0,184103
256,000000, 0,189607
255,000000, 0,196294
254,000000, 0,204792
253,000000, 0,213423
252,000000, 0,223463
251,000000, 0,233326
250,000000, 0,243060
