nm, A
550,000000, -0,002845
549,000000, -0,002860
548,000000, -0,002677
547,000000, -0,002768
546,000000, -0,002801
545,000000, -0,002708
544,000000, -0,002541
543,000000, -0,002684
542,000000, -0,002548
541,000000, -0,002566
540,000000, -0,002189
539,000000, -0,002409
538,000000, -0,002289
537,000000, -0,002404
536,000000, -0,002067
535,000000, -0,002051
534,000000, -0,002098
533,000000, -0,002139
532,000000, -0,001867
531,000000, -0,001702
530,000000, -0,001810
529,000000, -0,001693
528,000000, -0,001505
527,000000, -0,001325
526,000000, -0,001228
525,000000, -0,001028
524,000000, -0,000930
523,000000, -0,000995
522,000000, -0,000739
521,000000, -0,000510
520,000000, -0,000436
519,000000, -0,000182
518,000000, -0,000031
517,000000, 0,000046
516,000000, 0,000270
515,000000, 0,000604
514,000000, 0,000667
513,000000, 0,000832
512,000000, 0,001167
511,000000, 0,001472
510,000000, 0,001674
509,000000, 0,001700
508,000000, 0,001904
507,000000, 0,002235
506,000000, 0,002364
505,000000, 0,002689
504,000000, 0,003107
503,000000, 0,003471
502,000000, 0,003545
501,000000, 0,003862
500,000000, 0,004337
499,000000, 0,004669
498,000000, 0,005072
497,000000, 0,005419
496,000000, 0,005851
495,000000, 0,006002
494,000000, 0,006493
493,000000, 0,006843
492,000000, 0,007409
491,000000, 0,007664
490,000000, 0,008103
489,000000, 0,008885
488,000000, 0,009050
487,000000, 0,009540
486,000000, 0,010112
485,000000, 0,010188
484,000000, 0,010853
483,000000, 0,011473
482,000000, 0,012089
481,000000, 0,012812
480,000000, 0,013142
479,000000, 0,013599
478,000000, 0,014154
477,000000, 0,014652
476,000000, 0,015070
475,000000, 0,015727
474,000000, 0,016273
473,000000, 0,016924
472,000000, 0,017440
471,000000, 0,018091
470,000000, 0,018591
469,000000, 0,019277
468,000000, 0,019683
467,000000, 0,020230
466,000000, 0,020827
465,000000, 0,021373
464,000000, 0,021766
463,000000, 0,022403
462,000000, 0,023109
461,000000, 0,023606
460,000000, 0,023953
459,000000, 0,024526
458,000000, 0,024889
457,000000, 0,025430
456,000000, 0,026040
455,000000, 0,026419
454,000000, 0,026804
453,000000, 0,027454
452,000000, 0,027936
451,000000, 0,028247
450,000000, 0,028604
449,000000, 0,029183
448,000000, 0,029443
447,000000, 0,029757
446,000000, 0,030093
445,000000, 0,030416
444,000000, 0,030633
443,000000, 0,031005
442,000000, 0,031162
441,000000, 0,031332
440,000000, 0,031585
439,000000, 0,031535
438,000000, 0,031590
437,000000, 0,031709
436,000000, 0,031846
435,000000, 0,031934
434,000000, 0,031904
433,000000, 0,031729
432,000000, 0,031475
431,000000, 0,031564
430,000000, 0,031520
429,000000, 0,031296
428,000000, 0,030883
427,000000, 0,030587
426,000000, 0,030410
425,000000, 0,030246
424,000000, 0,029687
423,000000, 0,029261
422,000000, 0,028902
421,000000, 0,028418
420,000000, 0,028233
419,000000, 0,027736
418,000000, 0,027061
417,000000, 0,026444
416,000000, 0,025744
415,000000, 0,024972
414,000000, 0,024787
413,000000, 0,024272
412,000000, 0,023506
411,000000, 0,022735
410,000000, 0,022046
409,000000, 0,021262
408,000000, 0,020458
407,000000, 0,019708
406,000000, 0,019038
405,000000, 0,018189
404,000000, 0,017520
403,000000, 0,016953
402,000000, 0,016078
401,000000, 0,015490
400,000000, 0,014644
399,000000, 0,013762
398,000000, 0,012859
397,000000, 0,012056
396,000000, 0,011882
395,000000, 0,011295
394,000000, 0,010263
393,000000, 0,009657
392,000000, 0,009116
391,000000, 0,008596
390,000000, 0,008070
389,000000, 0,007351
388,000000, 0,006680
387,000000, 0,006228
386,000000, 0,005833
385,000000, 0,004808
384,000000, 0,004274
383,000000, 0,004451
382,000000, 0,004333
381,000000, 0,003673
380,000000, 0,002858
379,000000, 0,003274
378,000000, 0,003215
377,000000, 0,003390
376,000000, 0,003216
375,000000, 0,002338
374,000000, 0,002253
373,000000, 0,002216
372,000000, 0,001744
371,000000, 0,001401
370,000000, 0,001919
369,000000, 0,002363
368,000000, 0,003485
367,000000, 0,004811
366,000000, 0,006359
365,000000, 0,008912
364,000000, 0,011751
363,000000, 0,015182
362,000000, 0,020183
361,000000, 0,026392
360,000000, 0,035073
359,000000, 0,045391
358,000000, 0,057549
357,000000, 0,072627
356,000000, 0,090473
355,000000, 0,110034
354,000000, 0,131679
353,000000, 0,153997
352,000000, 0,177271
351,000000, 0,201050
350,000000, 0,224137
349,000000, 0,245489
348,000000, 0,266004
347,000000, 0,285436
346,000000, 0,304226
345,000000, 0,321516
344,000000, 0,338425
343,000000, 0,355190
342,000000, 0,372625
341,000000, 0,392202
340,000000, 0,413429
339,000000, 0,435825
338,000000, 0,460746
337,000000, 0,487348
336,000000, 0,514506
335,000000, 0,540787
334,000000, 0,567327
333,000000, 0,590781
332,000000, 0,612372
331,000000, 0,631055
330,000000, 0,648156
329,000000, 0,661725
328,000000, 0,671250
327,000000, 0,681585
326,000000, 0,692066
325,000000, 0,699723
324,000000, 0,710018
323,000000, 0,718764
322,000000, 0,727816
321,000000, 0,736251
320,000000, 0,742879
319,000000, 0,749944
318,000000, 0,754408
317,000000, 0,756593
316,000000, 0,758123
315,000000, 0,756481
314,000000, 0,753458
313,000000, 0,748589
312,000000, 0,742130
311,000000, 0,734834
310,000000, 0,727121
309,000000, 0,720132
308,000000, 0,711572
307,000000, 0,703364
306,000000, 0,693564
305,000000, 0,683800
304,000000, 0,672957
303,000000, 0,662229
302,000000, 0,648380
301,000000, 0,634945
300,000000, 0,622221
299,000000, 0,607309
298,000000, 0,592082
297,000000, 0,578644
296,000000, 0,563639
295,000000, 0,548993
294,000000, 0,534477
293,000000, 0,519465
292,000000, 0,504514
291,000000, 0,489276
290,000000, 0,474678
289,000000, 0,459869
288,000000, 0,445457
287,000000, 0,430991
286,000000, 0,417089
285,000000, 0,402122
284,000000, 0,388786
283,000000, 0,374091
282,000000, 0,360781
281,000000, 0,346975
280,000000, 0,334763
279,000000, 0,322100
278,000000, 0,309409
277,000000, 0,297688
276,000000, 0,287062
275,000000, 0,276286
274,000000, 0,264813
273,000000, 0,254357
272,000000, 0,244554
271,000000, 0,235555
270,000000, 0,226489
269,000000, 0,217481
268,000000, 0,209249
267,000000, 0,201779
266,000000, 0,194275
265,000000, 0,188123
264,000000, 0,182874
263,000000, 0,179153
262,000000, 0,174982
261,000000, 0,172547
260,000000, 0,170813
259,000000, 0,171559
258,000000, 0,173166
257,000000, 0,175361
256,000000, 0,178851
255,000000, 0,184610
254,000000, 0,190678
253,000000, 0,197807
252,000000, 0,206130
251,000000, 0,213974
250,000000, 0,222848
