nm, A
550,000000, -0,001950
549,000000, -0,002477
548,000000, -0,002253
547,000000, -0,002176
546,000000, -0,002384
545,000000, -0,002166
544,000000, -0,002269
543,000000, -0,002023
542,000000, -0,001903
541,000000, -0,001997
540,000000, -0,001756
539,000000, -0,002001
538,000000, -0,001723
537,000000, -0,001796
536,000000, -0,001625
535,000000, -0,001456
534,000000, -0,001414
533,000000, -0,001396
532,000000, -0,001334
531,000000, -0,001043
530,000000, -0,001125
529,000000, -0,001061
528,000000, -0,000992
527,000000, -0,000846
526,000000, -0,000666
525,000000, -0,000527
524,000000, -0,000478
523,000000, -0,000409
522,000000, -0,000135
521,000000, 0,000002
520,000000, 0,000160
519,000000, 0,000339
518,000000, 0,000487
517,000000, 0,000639
516,000000, 0,000748
515,000000, 0,000974
514,000000, 0,001265
513,000000, 0,001513
512,000000, 0,001627
511,000000, 0,002064
510,000000, 0,002168
509,000000, 0,002394
508,000000, 0,002650
507,000000, 0,002699
506,000000, 0,003101
505,000000, 0,003307
504,000000, 0,003617
503,000000, 0,004074
502,000000, 0,004186
501,000000, 0,004460
500,000000, 0,004738
499,000000, 0,005027
498,000000, 0,005550
497,000000, 0,005869
496,000000, 0,006331
495,000000, 0,006589
494,000000, 0,006904
493,000000, 0,007338
492,000000, 0,007719
491,000000, 0,007963
490,000000, 0,008495
489,000000, 0,009049
488,000000, 0,009765
487,000000, 0,009924
486,000000, 0,010412
485,000000, 0,010593
484,000000, 0,010918
483,000000, 0,011599
482,000000, 0,011944
481,000000, 0,012752
480,000000, 0,013228
479,000000, 0,013683
478,000000, 0,014074
477,000000, 0,014610
476,000000, 0,014976
475,000000, 0,015608
474,000000, 0,016030
473,000000, 0,016622
472,000000, 0,017123
471,000000, 0,017669
470,000000, 0,018251
469,000000, 0,018694
468,000000, 0,019078
467,000000, 0,019560
466,000000, 0,020167
465,000000, 0,020625
464,000000, 0,021063
463,000000, 0,021517
462,000000, 0,021914
461,000000, 0,022533
460,000000, 0,023025
459,000000, 0,023368
458,000000, 0,023591
457,000000, 0,024048
456,000000, 0,024607
455,000000, 0,024982
454,000000, 0,025245
453,000000, 0,025718
452,000000, 0,025981
451,000000, 0,026197
450,000000, 0,026636
449,000000, 0,027044
448,000000, 0,027363
447,000000, 0,027535
446,000000, 0,027705
445,000000, 0,028047
444,000000, 0,028287
443,000000, 0,028561
442,000000, 0,028694
441,000000, 0,028852
440,000000, 0,028903
439,000000, 0,028619
438,000000, 0,028841
437,000000, 0,028758
436,000000, 0,028790
435,000000, 0,028735
434,000000, 0,028594
433,000000, 0,028501
432,000000, 0,028530
431,000000, 0,028315
430,000000, 0,028081
429,000000, 0,027997
428,000000, 0,027643
427,000000, 0,027363
426,000000, 0,026890
425,000000, 0,026532
424,000000, 0,026245
423,000000, 0,026122
422,000000, 0,025719
421,000000, 0,025369
420,000000, 0,024896
419,000000, 0,024122
418,000000, 0,023575
417,000000, 0,023142
416,000000, 0,022625
415,000000, 0,022177
414,000000, 0,021989
413,000000, 0,021175
412,000000, 0,020532
411,000000, 0,020000
410,000000, 0,019282
409,000000, 0,018574
408,000000, 0,017996
407,000000, 0,017428
406,000000, 0,016870
405,000000, 0,016033
404,000000, 0,015289
403,000000, 0,014804
402,000000, 0,014314
401,000000, 0,013534
400,000000, 0,012901
399,000000, 0,012371
398,000000, 0,011453
397,000000, 0,010790
396,000000, 0,010527
395,000000, 0,009733
394,000000, 0,008866
393,000000, 0,008516
392,000000, 0,008185
391,000000, 0,007918
390,000000, 0,007391
389,000000, 0,006708
388,000000, 0,006153
387,000000, 0,005902
386,000000, 0,005588
385,000000, 0,004678
384,000000, 0,004139
383,000000, 0,004067
382,000000, 0,003965
381,000000, 0,003553
380,000000, 0,002932
379,000000, 0,003250
378,000000, 0,002783
377,000000, 0,002750
376,000000, 0,003001
375,000000, 0,002585
374,000000, 0,002557
373,000000, 0,002330
372,000000, 0,002180
371,000000, 0,002460
370,000000, 0,003088
369,000000, 0,003505
368,000000, 0,004725
367,000000, 0,006027
366,000000, 0,008133
365,000000, 0,011247
364,000000, 0,013929
363,000000, 0,017772
362,000000, 0,023732
361,000000, 0,031166
360,000000, 0,041004
359,000000, 0,052838
358,000000, 0,066988
357,000000, 0,084444
356,000000, 0,104665
355,000000, 0,126537
354,000000, 0,151776
353,000000, 0,177795
352,000000, 0,203896
351,000000, 0,231154
350,000000, 0,257447
349,000000, 0,282950
348,000000, 0,306608
347,000000, 0,328021
346,000000, 0,349024
345,000000, 0,369230
344,000000, 0,388332
343,000000, 0,406988
342,000000, 0,428114
341,000000, 0,450080
340,000000, 0,473401
339,000000, 0,499205
338,000000, 0,528034
337,000000, 0,558879
336,000000, 0,588640
335,000000, 0,619409
334,000000, 0,650042
333,000000, 0,676864
332,000000, 0,700151
331,000000, 0,721126
330,000000, 0,739792
329,000000, 0,754883
328,000000, 0,768387
327,000000, 0,779875
326,000000, 0,789946
325,000000, 0,797913
324,000000, 0,807519
323,000000, 0,817263
322,000000, 0,826993
321,000000, 0,837836
320,000000, 0,845177
319,000000, 0,852621
318,000000, 0,856654
317,000000, 0,859234
316,000000, 0,859485
315,000000, 0,856659
314,000000, 0,852060
313,000000, 0,845428
312,000000, 0,837835
311,000000, 0,829874
310,000000, 0,819725
309,000000, 0,810811
308,000000, 0,800558
307,000000, 0,788486
306,000000, 0,777898
305,000000, 0,765757
304,000000, 0,753060
303,000000, 0,738139
302,000000, 0,723153
301,000000, 0,707271
300,000000, 0,691502
299,000000, 0,674010
298,000000, 0,655921
297,000000, 0,639319
296,000000, 0,620724
295,000000, 0,602379
294,000000, 0,585257
293,000000, 0,568005
292,000000, 0,549977
291,000000, 0,532332
290,000000, 0,515824
289,000000, 0,497719
288,000000, 0,480817
287,000000, 0,463840
286,000000, 0,446536
285,000000, 0,429834
284,000000, 0,414254
283,000000, 0,397228
282,000000, 0,381586
281,000000, 0,366634
280,000000, 0,352627
279,000000, 0,337181
278,000000, 0,322929
277,000000, 0,308923
276,000000, 0,295873
275,000000, 0,284432
274,000000, 0,271470
273,000000, 0,259891
272,000000, 0,248748
271,000000, 0,237858
270,000000, 0,227685
269,000000, 0,218603
268,000000, 0,208673
267,000000, 0,200446
266,000000, 0,192060
265,000000, 0,184883
264,000000, 0,178494
263,000000, 0,173206
262,000000, 0,168331
261,000000, 0,164617
260,000000, 0,162171
259,000000, 0,160400
258,000000, 0,160225
257,000000, 0,160853
256,000000, 0,161550
255,000000, 0,164727
254,000000, 0,168119
253,000000, 0,173414
252,000000, 0,178556
251,000000, 0,184188
250,000000, 0,190736
