nm, A
550,000000, -0,027533
549,000000, -0,027505
548,000000, -0,027481
547,000000, -0,027571
546,000000, -0,027418
545,000000, -0,027436
544,000000, -0,027568
543,000000, -0,027515
542,000000, -0,027386
541,000000, -0,027511
540,000000, -0,027551
539,000000, -0,027560
538,000000, -0,027591
537,000000, -0,027573
536,000000, -0,027495
535,000000, -0,027535
534,000000, -0,027443
533,000000, -0,027574
532,000000, -0,027585
531,000000, -0,027455
530,000000, -0,027565
529,000000, -0,027573
528,000000, -0,027544
527,000000, -0,027589
526,000000, -0,027673
525,000000, -0,027689
524,000000, -0,027499
523,000000, -0,027688
522,000000, -0,027634
521,000000, -0,027760
520,000000, -0,027781
519,000000, -0,027780
518,000000, -0,027770
517,000000, -0,027817
516,000000, -0,027932
515,000000, -0,027910
514,000000, -0,027890
513,000000, -0,027938
512,000000, -0,028056
511,000000, -0,027933
510,000000, -0,027933
509,000000, -0,027888
508,000000, -0,027872
507,000000, -0,027877
506,000000, -0,027822
505,000000, -0,027734
504,000000, -0,027739
503,000000, -0,027649
502,000000, -0,027584
501,000000, -0,027551
500,000000, -0,027414
499,000000, -0,027284
498,000000, -0,027314
497,000000, -0,027100
496,000000, -0,027202
495,000000, -0,027191
494,000000, -0,027017
493,000000, -0,027047
492,000000, -0,026974
491,000000, -0,026956
490,000000, -0,026805
489,000000, -0,026825
488,000000, -0,026832
487,000000, -0,026713
486,000000, -0,026700
485,000000, -0,027004
484,000000, -0,026822
483,000000, -0,027011
482,000000, -0,027065
481,000000, -0,027169
480,000000, -0,027311
479,000000, -0,027146
478,000000, -0,027019
477,000000, -0,027111
476,000000, -0,027031
475,000000, -0,027031
474,000000, -0,027054
473,000000, -0,027154
472,000000, -0,027080
471,000000, -0,026988
470,000000, -0,027046
469,000000, -0,026904
468,000000, -0,026789
467,000000, -0,026755
466,000000, -0,026558
465,000000, -0,026532
464,000000, -0,026369
463,000000, -0,026253
462,000000, -0,026133
461,000000, -0,026125
460,000000, -0,026132
459,000000, -0,026024
458,000000, -0,025985
457,000000, -0,025879
456,000000, -0,025943
455,000000, -0,025864
454,000000, -0,025884
453,000000, -0,025955
452,000000, -0,026243
451,000000, -0,026070
450,000000, -0,025927
449,000000, -0,025892
448,000000, -0,025889
447,000000, -0,026105
446,000000, -0,026174
445,000000, -0,026157
444,000000, -0,026148
443,000000, -0,026240
442,000000, -0,026389
441,000000, -0,026356
440,000000, -0,026245
439,000000, -0,026135
438,000000, -0,026275
437,000000, -0,026258
436,000000, -0,026206
435,000000, -0,026185
434,000000, -0,026110
433,000000, -0,026157
432,000000, -0,026135
431,000000, -0,026081
430,000000, -0,026176
429,000000, -0,026110
428,000000, -0,025966
427,000000, -0,026106
426,000000, -0,026101
425,000000, -0,025972
424,000000, -0,025857
423,000000, -0,025856
422,000000, -0,025988
421,000000, -0,025977
420,000000, -0,025852
419,000000, -0,025776
418,000000, -0,025769
417,000000, -0,025887
416,000000, -0,025864
415,000000, -0,025641
414,000000, -0,025506
413,000000, -0,025407
412,000000, -0,025412
411,000000, -0,025359
410,000000, -0,025261
409,000000, -0,025025
408,000000, -0,024944
407,000000, -0,025103
406,000000, -0,025097
405,000000, -0,025050
404,000000, -0,024815
403,000000, -0,024673
402,000000, -0,024798
401,000000, -0,024898
400,000000, -0,024782
399,000000, -0,024522
398,000000, -0,024461
397,000000, -0,024366
396,000000, -0,024121
395,000000, -0,023976
394,000000, -0,023938
393,000000, -0,023933
392,000000, -0,023804
391,000000, -0,023830
390,000000, -0,023868
389,000000, -0,023564
388,000000, -0,023420
387,000000, -0,023296
386,000000, -0,023229
385,000000, -0,023257
384,000000, -0,023334
383,000000, -0,023373
382,000000, -0,023052
381,000000, -0,022936
380,000000, -0,022778
379,000000, -0,022707
378,000000, -0,022646
377,000000, -0,022329
376,000000, -0,022379
375,000000, -0,022225
374,000000, -0,021757
373,000000, -0,021825
372,000000, -0,021920
371,000000, -0,021741
370,000000, -0,021481
369,000000, -0,021200
368,000000, -0,021029
367,000000, -0,021252
366,000000, -0,020857
365,000000, -0,020524
364,000000, -0,020636
363,000000, -0,020429
362,000000, -0,020354
361,000000, -0,020015
360,000000, -0,019918
359,000000, -0,019711
358,000000, -0,019337
357,000000, -0,019135
356,000000, -0,019154
355,000000, -0,018874
354,000000, -0,018866
353,000000, -0,018515
352,000000, -0,018179
351,000000, -0,017805
350,000000, -0,017401
349,000000, -0,017181
348,000000, -0,017296
347,000000, -0,016974
346,000000, -0,016649
345,000000, -0,016255
344,000000, -0,015838
343,000000, -0,015738
342,000000, -0,015989
341,000000, -0,015407
340,000000, -0,014933
339,000000, -0,015025
338,000000, -0,014175
337,000000, -0,014071
336,000000, -0,013772
335,000000, -0,013321
334,000000, -0,012795
333,000000, -0,013104
332,000000, -0,012764
331,000000, -0,012048
330,000000, -0,011665
329,000000, -0,011543
328,000000, -0,012030
327,000000, -0,010655
326,000000, -0,010819
325,000000, -0,010176
324,000000, -0,009546
323,000000, -0,009696
322,000000, -0,009048
321,000000, -0,008916
320,000000, -0,008905
319,000000, -0,007912
318,000000, -0,006806
317,000000, -0,006205
316,000000, -0,006114
315,000000, -0,005205
314,000000, -0,005283
313,000000, -0,004930
312,000000, -0,004038
311,000000, -0,003476
310,000000, -0,003759
309,000000, -0,002849
308,000000, -0,002105
307,000000, -0,001817
306,000000, -0,001249
305,000000, -0,000915
304,000000, -0,000686
303,000000, -0,000279
302,000000, 0,000510
301,000000, 0,000959
300,000000, 0,001555
299,000000, 0,002586
298,000000, 0,003098
297,000000, 0,003330
296,000000, 0,004015
295,000000, 0,004818
294,000000, 0,005587
293,000000, 0,006728
292,000000, 0,007614
291,000000, 0,007983
290,000000, 0,008975
289,000000, 0,009414
288,000000, 0,010350
287,000000, 0,011236
286,000000, 0,011820
285,000000, 0,012755
284,000000, 0,014007
283,000000, 0,014434
282,000000, 0,014866
281,000000, 0,015968
280,000000, 0,016116
279,000000, 0,016685
278,000000, 0,017252
277,000000, 0,018030
276,000000, 0,018513
275,000000, 0,019172
274,000000, 0,019487
273,000000, 0,019860
272,000000, 0,020005
271,000000, 0,019944
270,000000, 0,020401
269,000000, 0,021151
268,000000, 0,021176
267,000000, 0,020576
266,000000, 0,020870
265,000000, 0,021672
264,000000, 0,021664
263,000000, 0,022059
262,000000, 0,022270
261,000000, 0,022302
260,000000, 0,022293
259,000000, 0,022409
258,000000, 0,022787
257,000000, 0,022519
256,000000, 0,023653
255,000000, 0,023464
254,000000, 0,024204
253,000000, 0,024696
252,000000, 0,025098
251,000000, 0,026115
250,000000, 0,026610
