nm;A
650.000000;0.032748
649.000000;0.032316
648.000000;0.032584
647.000000;0.033020
646.000000;0.032896
645.000000;0.032924
644.000000;0.032558
643.000000;0.032471
642.000000;0.032859
641.000000;0.032921
640.000000;0.032899
639.000000;0.032927
638.000000;0.032903
637.000000;0.032677
636.000000;0.032793
635.000000;0.032774
634.000000;0.032919
633.000000;0.032956
632.000000;0.033228
631.000000;0.032895
630.000000;0.032861
629.000000;0.032905
628.000000;0.033115
627.000000;0.033508
626.000000;0.033472
625.000000;0.033190
624.000000;0.033164
623.000000;0.033229
622.000000;0.033374
621.000000;0.033433
620.000000;0.033733
619.000000;0.033314
618.000000;0.033350
617.000000;0.033208
616.000000;0.033398
615.000000;0.033289
614.000000;0.032981
613.000000;0.033105
612.000000;0.032996
611.000000;0.033143
610.000000;0.033110
609.000000;0.032905
608.000000;0.033170
607.000000;0.033213
606.000000;0.033175
605.000000;0.033192
604.000000;0.033182
603.000000;0.033233
602.000000;0.033284
601.000000;0.033260
600.000000;0.033339
599.000000;0.033147
598.000000;0.032927
597.000000;0.033368
596.000000;0.033344
595.000000;0.033457
594.000000;0.033241
593.000000;0.033150
592.000000;0.033183
591.000000;0.033209
590.000000;0.033373
589.000000;0.033333
588.000000;0.033518
587.000000;0.033465
586.000000;0.033356
585.000000;0.033529
584.000000;0.033639
583.000000;0.033475
582.000000;0.033570
581.000000;0.033248
580.000000;0.033468
579.000000;0.033623
578.000000;0.033140
577.000000;0.033455
576.000000;0.033532
575.000000;0.033800
574.000000;0.033745
573.000000;0.033488
572.000000;0.033443
571.000000;0.033625
570.000000;0.033763
569.000000;0.033729
568.000000;0.033610
567.000000;0.033462
566.000000;0.033529
565.000000;0.033511
564.000000;0.033800
563.000000;0.033598
562.000000;0.033866
561.000000;0.033955
560.000000;0.033930
559.000000;0.034032
558.000000;0.033855
557.000000;0.033762
556.000000;0.033877
555.000000;0.033856
554.000000;0.034188
553.000000;0.034213
552.000000;0.034191
551.000000;0.034276
550.000000;0.034046
549.000000;0.034332
548.000000;0.034482
547.000000;0.034634
546.000000;0.034606
545.000000;0.034529
544.000000;0.034603
543.000000;0.034654
542.000000;0.034539
541.000000;0.034877
540.000000;0.035067
539.000000;0.035156
538.000000;0.035137
537.000000;0.035167
536.000000;0.035341
535.000000;0.035355
534.000000;0.035561
533.000000;0.035693
532.000000;0.035686
531.000000;0.035785
530.000000;0.035799
529.000000;0.036101
528.000000;0.036300
527.000000;0.036575
526.000000;0.036736
525.000000;0.037017
524.000000;0.036990
523.000000;0.037296
522.000000;0.037286
521.000000;0.037656
520.000000;0.037744
519.000000;0.038122
518.000000;0.038247
517.000000;0.038504
516.000000;0.038869
515.000000;0.039042
514.000000;0.039201
513.000000;0.039624
512.000000;0.039886
511.000000;0.040232
510.000000;0.040501
509.000000;0.040767
508.000000;0.041130
507.000000;0.041650
506.000000;0.042007
505.000000;0.042365
504.000000;0.042859
503.000000;0.043186
502.000000;0.043705
501.000000;0.044015
500.000000;0.044553
499.000000;0.045011
498.000000;0.045493
497.000000;0.045837
496.000000;0.046616
495.000000;0.047105
494.000000;0.047463
493.000000;0.048160
492.000000;0.048755
491.000000;0.049268
490.000000;0.049666
489.000000;0.050578
488.000000;0.051259
487.000000;0.051945
486.000000;0.052688
485.000000;0.053549
484.000000;0.054055
483.000000;0.054822
482.000000;0.055665
481.000000;0.056299
480.000000;0.057180
479.000000;0.057991
478.000000;0.058784
477.000000;0.059400
476.000000;0.060374
475.000000;0.061244
474.000000;0.062126
473.000000;0.062959
472.000000;0.063753
471.000000;0.064664
470.000000;0.065513
469.000000;0.066455
468.000000;0.067270
467.000000;0.068184
466.000000;0.069091
465.000000;0.069956
464.000000;0.070968
463.000000;0.071770
462.000000;0.072594
461.000000;0.073565
460.000000;0.074556
459.000000;0.075248
458.000000;0.076236
457.000000;0.076961
456.000000;0.078131
455.000000;0.078791
454.000000;0.079312
453.000000;0.080137
452.000000;0.080990
451.000000;0.081440
450.000000;0.082411
449.000000;0.082744
448.000000;0.083080
447.000000;0.083948
446.000000;0.084378
445.000000;0.085104
444.000000;0.085713
443.000000;0.086031
442.000000;0.086114
441.000000;0.086575
440.000000;0.086750
439.000000;0.087148
438.000000;0.087018
437.000000;0.087076
436.000000;0.087081
435.000000;0.087221
434.000000;0.087512
433.000000;0.087156
432.000000;0.087197
431.000000;0.086741
430.000000;0.086522
429.000000;0.085983
428.000000;0.085551
427.000000;0.085167
426.000000;0.084906
425.000000;0.084008
424.000000;0.083396
423.000000;0.082827
422.000000;0.082315
421.000000;0.081578
420.000000;0.080568
419.000000;0.079828
418.000000;0.078960
417.000000;0.077913
416.000000;0.076817
415.000000;0.075940
414.000000;0.074847
413.000000;0.073731
412.000000;0.072556
411.000000;0.072018
410.000000;0.070938
409.000000;0.069015
408.000000;0.068113
407.000000;0.067510
406.000000;0.065782
405.000000;0.064991
404.000000;0.063930
403.000000;0.062742
402.000000;0.061819
401.000000;0.060614
400.000000;0.059759
399.000000;0.058484
398.000000;0.057499
397.000000;0.056772
396.000000;0.055879
395.000000;0.055032
394.000000;0.053982
393.000000;0.053294
392.000000;0.052518
391.000000;0.051500
390.000000;0.051055
389.000000;0.050369
388.000000;0.049612
387.000000;0.049449
386.000000;0.048593
385.000000;0.048990
384.000000;0.048573
383.000000;0.048655
382.000000;0.048728
381.000000;0.048564
380.000000;0.049037
379.000000;0.049526
378.000000;0.050329
377.000000;0.052467
376.000000;0.054118
375.000000;0.056125
374.000000;0.058691
373.000000;0.062388
372.000000;0.066260
371.000000;0.070457
370.000000;0.075918
369.000000;0.081970
368.000000;0.087617
367.000000;0.094756
366.000000;0.100486
365.000000;0.107592
364.000000;0.114429
363.000000;0.120806
362.000000;0.127808
361.000000;0.133414
360.000000;0.139590
359.000000;0.144800
358.000000;0.150587
357.000000;0.155844
356.000000;0.161529
355.000000;0.166089
354.000000;0.171436
353.000000;0.177066
352.000000;0.182031
351.000000;0.188297
350.000000;0.194567
349.000000;0.200510
348.000000;0.207456
347.000000;0.213834
346.000000;0.220050
345.000000;0.227102
344.000000;0.233418
343.000000;0.237954
342.000000;0.243067
341.000000;0.248164
340.000000;0.250575
339.000000;0.254426
338.000000;0.256876
337.000000;0.260740
336.000000;0.262897
335.000000;0.265648
334.000000;0.267688
333.000000;0.270363
332.000000;0.272489
331.000000;0.274531
330.000000;0.277044
329.000000;0.278645
328.000000;0.281277
327.000000;0.282513
326.000000;0.285122
325.000000;0.286372
324.000000;0.286765
323.000000;0.286426
322.000000;0.288790
321.000000;0.289198
320.000000;0.288223
319.000000;0.290514
318.000000;0.289066
317.000000;0.288819
316.000000;0.289020
315.000000;0.290691
314.000000;0.289768
313.000000;0.289502
312.000000;0.290054
311.000000;0.289727
310.000000;0.289980
309.000000;0.289986
308.000000;0.289443
307.000000;0.289844
306.000000;0.288382
305.000000;0.288196
304.000000;0.286610
303.000000;0.285729
302.000000;0.284659
301.000000;0.284992
300.000000;0.284108
299.000000;0.282606
298.000000;0.281510
297.000000;0.279641
296.000000;0.278411
295.000000;0.276724
294.000000;0.274675
293.000000;0.272637
292.000000;0.269828
291.000000;0.266848
290.000000;0.264721
289.000000;0.262257
288.000000;0.260166
287.000000;0.257775
286.000000;0.254799
285.000000;0.251694
284.000000;0.247789
283.000000;0.245639
282.000000;0.241502
281.000000;0.237834
280.000000;0.234565
279.000000;0.231611
278.000000;0.227470
277.000000;0.224161
276.000000;0.220392
275.000000;0.217381
274.000000;0.214375
273.000000;0.211738
272.000000;0.209347
271.000000;0.208232
270.000000;0.206931
269.000000;0.205983
268.000000;0.206745
267.000000;0.208581
266.000000;0.211349
265.000000;0.216894
264.000000;0.222138
263.000000;0.229184
262.000000;0.237733
261.000000;0.248392
260.000000;0.259347
259.000000;0.271683
258.000000;0.284890
257.000000;0.298976
256.000000;0.314111
255.000000;0.329029
254.000000;0.342685
253.000000;0.357449
252.000000;0.370910
251.000000;0.383477
250.000000;0.395674
