nm, A
850,000000, 0,247206
849,000000, 0,247827
848,000000, 0,246295
847,000000, 0,252134
846,000000, 0,250790
845,000000, 0,251801
844,000000, 0,253137
843,000000, 0,253940
842,000000, 0,253482
841,000000, 0,252191
840,000000, 0,252464
839,000000, 0,254723
838,000000, 0,255131
837,000000, 0,253924
836,000000, 0,255791
835,000000, 0,255291
834,000000, 0,258369
833,000000, 0,258706
832,000000, 0,259501
831,000000, 0,258908
830,000000, 0,259475
829,000000, 0,260375
828,000000, 0,261247
827,000000, 0,260519
826,000000, 0,262315
825,000000, 0,263182
824,000000, 0,264437
823,000000, 0,264579
822,000000, 0,264522
821,000000, 0,265294
820,000000, 0,267185
819,000000, 0,266491
818,000000, 0,267131
817,000000, 0,267467
816,000000, 0,269352
815,000000, 0,269829
814,000000, 0,268937
813,000000, 0,270053
812,000000, 0,271816
811,000000, 0,270960
810,000000, 0,273205
809,000000, 0,273827
808,000000, 0,274079
807,000000, 0,274462
806,000000, 0,275042
805,000000, 0,276138
804,000000, 0,275984
803,000000, 0,276571
802,000000, 0,277817
801,000000, 0,278385
800,000000, 0,278969
799,000000, 0,279681
798,000000, 0,280628
797,000000, 0,280803
796,000000, 0,281796
795,000000, 0,282601
794,000000, 0,283588
793,000000, 0,284483
792,000000, 0,285925
791,000000, 0,285239
790,000000, 0,286668
789,000000, 0,288247
788,000000, 0,288792
787,000000, 0,290594
786,000000, 0,291095
785,000000, 0,291442
784,000000, 0,292306
783,000000, 0,293347
782,000000, 0,295391
781,000000, 0,295860
780,000000, 0,296338
779,000000, 0,297891
778,000000, 0,298496
777,000000, 0,299692
776,000000, 0,300563
775,000000, 0,303215
774,000000, 0,304153
773,000000, 0,305482
772,000000, 0,306323
771,000000, 0,308123
770,000000, 0,309729
769,000000, 0,310661
768,000000, 0,312825
767,000000, 0,314534
766,000000, 0,316293
765,000000, 0,318477
764,000000, 0,320281
763,000000, 0,322073
762,000000, 0,323286
761,000000, 0,325748
760,000000, 0,328882
759,000000, 0,330149
758,000000, 0,332526
757,000000, 0,334691
756,000000, 0,336305
755,000000, 0,338674
754,000000, 0,341112
753,000000, 0,343465
752,000000, 0,345883
751,000000, 0,347907
750,000000, 0,350359
749,000000, 0,352391
748,000000, 0,354862
747,000000, 0,357120
746,000000, 0,359359
745,000000, 0,361377
744,000000, 0,364167
743,000000, 0,366614
742,000000, 0,368356
741,000000, 0,369885
740,000000, 0,372209
739,000000, 0,374866
738,000000, 0,377219
737,000000, 0,378228
736,000000, 0,380215
735,000000, 0,382588
734,000000, 0,385279
733,000000, 0,387605
732,000000, 0,389143
731,000000, 0,390901
730,000000, 0,393268
729,000000, 0,394933
728,000000, 0,397113
727,000000, 0,398885
726,000000, 0,400751
725,000000, 0,403195
724,000000, 0,405316
723,000000, 0,406948
722,000000, 0,408690
721,000000, 0,410536
720,000000, 0,412743
719,000000, 0,414600
718,000000, 0,416817
717,000000, 0,418668
716,000000, 0,420911
715,000000, 0,423754
714,000000, 0,425506
713,000000, 0,427291
712,000000, 0,429373
711,000000, 0,431757
710,000000, 0,434157
709,000000, 0,436016
708,000000, 0,438501
707,000000, 0,440745
706,000000, 0,442337
705,000000, 0,444807
704,000000, 0,447408
703,000000, 0,449899
702,000000, 0,452178
701,000000, 0,454489
700,000000, 0,456907
699,000000, 0,459076
698,000000, 0,461155
697,000000, 0,463676
696,000000, 0,466537
695,000000, 0,468930
694,000000, 0,471060
693,000000, 0,473456
692,000000, 0,476034
691,000000, 0,478656
690,000000, 0,481193
689,000000, 0,483729
688,000000, 0,486019
687,000000, 0,488279
686,000000, 0,490952
685,000000, 0,493650
684,000000, 0,496291
683,000000, 0,499147
682,000000, 0,501797
681,000000, 0,504700
680,000000, 0,507650
679,000000, 0,510395
678,000000, 0,513304
677,000000, 0,515914
676,000000, 0,519060
675,000000, 0,522576
674,000000, 0,525320
673,000000, 0,527955
672,000000, 0,530789
671,000000, 0,533086
670,000000, 0,535805
669,000000, 0,539036
668,000000, 0,541433
667,000000, 0,543885
666,000000, 0,546874
665,000000, 0,549777
664,000000, 0,552383
663,000000, 0,555625
662,000000, 0,558880
661,000000, 0,562311
660,000000, 0,565673
659,000000, 0,569532
658,000000, 0,573657
657,000000, 0,577992
656,000000, 0,582374
655,000000, 0,587031
654,000000, 0,591711
653,000000, 0,596769
652,000000, 0,601313
651,000000, 0,605782
650,000000, 0,609956
649,000000, 0,614046
648,000000, 0,618050
647,000000, 0,621808
646,000000, 0,625469
645,000000, 0,629235
644,000000, 0,632217
643,000000, 0,634596
642,000000, 0,637437
641,000000, 0,640279
640,000000, 0,642761
639,000000, 0,645704
638,000000, 0,648547
637,000000, 0,651649
636,000000, 0,655276
635,000000, 0,659201
634,000000, 0,663458
633,000000, 0,667807
632,000000, 0,672985
631,000000, 0,678918
630,000000, 0,685438
629,000000, 0,692433
628,000000, 0,700409
627,000000, 0,709285
626,000000, 0,719012
625,000000, 0,729601
624,000000, 0,740736
623,000000, 0,752161
622,000000, 0,764343
621,000000, 0,776490
620,000000, 0,788949
619,000000, 0,800322
618,000000, 0,810643
617,000000, 0,820604
616,000000, 0,829341
615,000000, 0,836042
614,000000, 0,841721
613,000000, 0,845608
612,000000, 0,848200
611,000000, 0,849090
610,000000, 0,849046
609,000000, 0,848834
608,000000, 0,846724
607,000000, 0,844255
606,000000, 0,841933
605,000000, 0,839167
604,000000, 0,836223
603,000000, 0,833218
602,000000, 0,831137
601,000000, 0,829108
600,000000, 0,827386
599,000000, 0,826478
598,000000, 0,826701
597,000000, 0,826543
596,000000, 0,827130
595,000000, 0,828757
594,000000, 0,830998
593,000000, 0,833756
592,000000, 0,837424
591,000000, 0,840935
590,000000, 0,845683
589,000000, 0,851725
588,000000, 0,858500
587,000000, 0,865789
586,000000, 0,873899
585,000000, 0,883838
584,000000, 0,895148
583,000000, 0,907108
582,000000, 0,921099
581,000000, 0,937425
580,000000, 0,955324
579,000000, 0,974397
578,000000, 0,995998
577,000000, 1,019932
576,000000, 1,043754
575,000000, 1,068826
574,000000, 1,093426
573,000000, 1,115533
572,000000, 1,135827
571,000000, 1,152067
570,000000, 1,164261
569,000000, 1,172574
568,000000, 1,177596
567,000000, 1,178716
566,000000, 1,177057
565,000000, 1,173346
564,000000, 1,168296
563,000000, 1,161940
562,000000, 1,155106
561,000000, 1,149719
560,000000, 1,143749
559,000000, 1,138809
558,000000, 1,134895
557,000000, 1,132104
556,000000, 1,130041
555,000000, 1,129039
554,000000, 1,128538
553,000000, 1,129582
552,000000, 1,131276
551,000000, 1,133280
550,000000, 1,137096
549,000000, 1,141626
548,000000, 1,146512
547,000000, 1,150977
546,000000, 1,156859
545,000000, 1,163249
544,000000, 1,169986
543,000000, 1,177080
542,000000, 1,184649
541,000000, 1,192564
540,000000, 1,200721
539,000000, 1,210118
538,000000, 1,219700
537,000000, 1,230477
536,000000, 1,241205
535,000000, 1,253823
534,000000, 1,267636
533,000000, 1,282166
532,000000, 1,298718
531,000000, 1,318738
530,000000, 1,340414
529,000000, 1,365915
528,000000, 1,394817
527,000000, 1,426699
526,000000, 1,462975
525,000000, 1,500396
524,000000, 1,538899
523,000000, 1,575438
522,000000, 1,607990
521,000000, 1,635811
520,000000, 1,656655
519,000000, 1,672870
518,000000, 1,682754
517,000000, 1,689013
516,000000, 1,690700
515,000000, 1,690303
514,000000, 1,687721
513,000000, 1,683225
512,000000, 1,677822
511,000000, 1,672830
510,000000, 1,666274
509,000000, 1,660913
508,000000, 1,655332
507,000000, 1,649777
506,000000, 1,646089
505,000000, 1,642849
504,000000, 1,640096
503,000000, 1,638557
502,000000, 1,638525
501,000000, 1,638472
500,000000, 1,638800
499,000000, 1,639910
498,000000, 1,640702
497,000000, 1,642563
496,000000, 1,645681
495,000000, 1,647832
494,000000, 1,651190
493,000000, 1,654594
492,000000, 1,658538
491,000000, 1,664566
490,000000, 1,668354
489,000000, 1,673879
488,000000, 1,679304
487,000000, 1,684974
486,000000, 1,690789
485,000000, 1,696874
484,000000, 1,704121
483,000000, 1,710596
482,000000, 1,716354
481,000000, 1,723337
480,000000, 1,730599
479,000000, 1,737003
478,000000, 1,744408
477,000000, 1,751652
476,000000, 1,757712
475,000000, 1,765226
474,000000, 1,771226
473,000000, 1,777330
472,000000, 1,783990
471,000000, 1,791518
470,000000, 1,798005
469,000000, 1,805664
468,000000, 1,811749
467,000000, 1,818275
466,000000, 1,825110
465,000000, 1,832528
464,000000, 1,839873
463,000000, 1,847385
462,000000, 1,855070
461,000000, 1,862318
460,000000, 1,871656
459,000000, 1,879930
458,000000, 1,887107
457,000000, 1,895847
456,000000, 1,904665
455,000000, 1,914248
454,000000, 1,923888
453,000000, 1,933229
452,000000, 1,942749
451,000000, 1,952685
450,000000, 1,962472
449,000000, 1,972373
448,000000, 1,983214
447,000000, 1,995452
446,000000, 2,007474
445,000000, 2,016907
444,000000, 2,029201
443,000000, 2,041365
442,000000, 2,054718
441,000000, 2,067761
440,000000, 2,080334
439,000000, 2,093814
438,000000, 2,107387
437,000000, 2,121061
436,000000, 2,135153
435,000000, 2,150435
434,000000, 2,165264
433,000000, 2,180229
432,000000, 2,196863
431,000000, 2,211033
430,000000, 2,225711
429,000000, 2,243229
428,000000, 2,261733
427,000000, 2,278134
426,000000, 2,292377
425,000000, 2,313463
424,000000, 2,330869
423,000000, 2,347821
422,000000, 2,367511
421,000000, 2,387502
420,000000, 2,406499
419,000000, 2,426466
418,000000, 2,447739
417,000000, 2,468123
416,000000, 2,488400
415,000000, 2,511056
414,000000, 2,533788
413,000000, 2,553774
412,000000, 2,582232
411,000000, 2,603563
410,000000, 2,623117
409,000000, 2,648836
408,000000, 2,680754
407,000000, 2,708842
406,000000, 2,735027
405,000000, 2,764343
404,000000, 2,789668
403,000000, 2,816344
402,000000, 2,843703
401,000000, 2,867088
400,000000, 2,880785
399,000000, 2,891746
398,000000, 2,907913
397,000000, 2,923137
396,000000, 2,925520
395,000000, 2,931002
394,000000, 2,942681
393,000000, 2,956705
392,000000, 2,981639
391,000000, 2,998467
390,000000, 3,016386
389,000000, 3,030401
388,000000, 3,058671
387,000000, 3,081107
386,000000, 3,086332
385,000000, 3,102029
384,000000, 3,129124
383,000000, 3,148149
382,000000, 3,180208
381,000000, 3,207435
380,000000, 3,220342
379,000000, 3,224311
378,000000, 3,209780
377,000000, 3,191419
376,000000, 3,267946
375,000000, 3,314158
374,000000, 3,256532
373,000000, 3,301059
372,000000, 3,381844
371,000000, 3,372758
370,000000, 3,345385
369,000000, 3,451569
368,000000, 3,546954
367,000000, 3,485787
366,000000, 3,481425
365,000000, 3,589453
364,000000, 3,603355
363,000000, 3,574756
362,000000, 3,617535
361,000000, 3,688776
360,000000, 3,599775
359,000000, 3,604715
358,000000, 3,726795
357,000000, 3,717088
356,000000, 3,673476
355,000000, 3,769121
354,000000, 3,878838
353,000000, 3,816893
352,000000, 3,825664
351,000000, 3,974317
350,000000, 3,853079
