nm, A
650,000000, 0,032846
649,000000, 0,032658
648,000000, 0,033427
647,000000, 0,033009
646,000000, 0,033222
645,000000, 0,033151
644,000000, 0,032765
643,000000, 0,032942
642,000000, 0,033027
641,000000, 0,033196
640,000000, 0,033188
639,000000, 0,033170
638,000000, 0,032799
637,000000, 0,033033
636,000000, 0,033188
635,000000, 0,033283
634,000000, 0,033166
633,000000, 0,033490
632,000000, 0,033323
631,000000, 0,033071
630,000000, 0,033268
629,000000, 0,033393
628,000000, 0,033467
627,000000, 0,033394
626,000000, 0,033539
625,000000, 0,033671
624,000000, 0,033400
623,000000, 0,033437
622,000000, 0,033597
621,000000, 0,033480
620,000000, 0,033690
619,000000, 0,033631
618,000000, 0,033634
617,000000, 0,033484
616,000000, 0,033527
615,000000, 0,033782
614,000000, 0,033626
613,000000, 0,033254
612,000000, 0,033544
611,000000, 0,033321
610,000000, 0,033294
609,000000, 0,033315
608,000000, 0,033472
607,000000, 0,033420
606,000000, 0,033311
605,000000, 0,033478
604,000000, 0,033445
603,000000, 0,033605
602,000000, 0,033544
601,000000, 0,033576
600,000000, 0,033432
599,000000, 0,033476
598,000000, 0,033724
597,000000, 0,033589
596,000000, 0,033774
595,000000, 0,033612
594,000000, 0,033569
593,000000, 0,033375
592,000000, 0,033817
591,000000, 0,033947
590,000000, 0,033686
589,000000, 0,033591
588,000000, 0,033713
587,000000, 0,033652
586,000000, 0,033687
585,000000, 0,033771
584,000000, 0,033675
583,000000, 0,033622
582,000000, 0,033778
581,000000, 0,033785
580,000000, 0,033836
579,000000, 0,034019
578,000000, 0,033573
577,000000, 0,033764
576,000000, 0,033932
575,000000, 0,033997
574,000000, 0,033798
573,000000, 0,033858
572,000000, 0,033790
571,000000, 0,033516
570,000000, 0,033836
569,000000, 0,034002
568,000000, 0,034026
567,000000, 0,034266
566,000000, 0,033779
565,000000, 0,033806
564,000000, 0,033912
563,000000, 0,033865
562,000000, 0,033960
561,000000, 0,034308
560,000000, 0,034452
559,000000, 0,034414
558,000000, 0,034213
557,000000, 0,034092
556,000000, 0,034039
555,000000, 0,034019
554,000000, 0,034173
553,000000, 0,034228
552,000000, 0,034472
551,000000, 0,034464
550,000000, 0,034296
549,000000, 0,034554
548,000000, 0,034632
547,000000, 0,034692
546,000000, 0,034747
545,000000, 0,034687
544,000000, 0,034693
543,000000, 0,034807
542,000000, 0,034717
541,000000, 0,034935
540,000000, 0,035053
539,000000, 0,035192
538,000000, 0,035039
537,000000, 0,035128
536,000000, 0,035319
535,000000, 0,035232
534,000000, 0,035379
533,000000, 0,035691
532,000000, 0,035751
531,000000, 0,035865
530,000000, 0,035753
529,000000, 0,036060
528,000000, 0,036182
527,000000, 0,036387
526,000000, 0,036550
525,000000, 0,036796
524,000000, 0,036743
523,000000, 0,037097
522,000000, 0,037140
521,000000, 0,037468
520,000000, 0,037457
519,000000, 0,037750
518,000000, 0,037985
517,000000, 0,038193
516,000000, 0,038411
515,000000, 0,038614
514,000000, 0,038770
513,000000, 0,039203
512,000000, 0,039367
511,000000, 0,039722
510,000000, 0,040119
509,000000, 0,040399
508,000000, 0,040627
507,000000, 0,041048
506,000000, 0,041374
505,000000, 0,041616
504,000000, 0,042005
503,000000, 0,042344
502,000000, 0,042802
501,000000, 0,043076
500,000000, 0,043511
499,000000, 0,043866
498,000000, 0,044336
497,000000, 0,044613
496,000000, 0,045438
495,000000, 0,045989
494,000000, 0,046120
493,000000, 0,046758
492,000000, 0,047274
491,000000, 0,047628
490,000000, 0,047998
489,000000, 0,048739
488,000000, 0,049271
487,000000, 0,049845
486,000000, 0,050491
485,000000, 0,051172
484,000000, 0,051624
483,000000, 0,052335
482,000000, 0,052962
481,000000, 0,053501
480,000000, 0,054284
479,000000, 0,054882
478,000000, 0,055700
477,000000, 0,056276
476,000000, 0,057022
475,000000, 0,057634
474,000000, 0,058252
473,000000, 0,058889
472,000000, 0,059757
471,000000, 0,060454
470,000000, 0,061177
469,000000, 0,061914
468,000000, 0,062532
467,000000, 0,063340
466,000000, 0,063997
465,000000, 0,064654
464,000000, 0,065464
463,000000, 0,066248
462,000000, 0,066974
461,000000, 0,067713
460,000000, 0,068421
459,000000, 0,068894
458,000000, 0,069753
457,000000, 0,070171
456,000000, 0,071220
455,000000, 0,071722
454,000000, 0,072227
453,000000, 0,072669
452,000000, 0,073325
451,000000, 0,073792
450,000000, 0,074390
449,000000, 0,074579
448,000000, 0,074910
447,000000, 0,075706
446,000000, 0,075947
445,000000, 0,076348
444,000000, 0,076934
443,000000, 0,077270
442,000000, 0,077074
441,000000, 0,077284
440,000000, 0,077406
439,000000, 0,077878
438,000000, 0,077696
437,000000, 0,077833
436,000000, 0,077754
435,000000, 0,077797
434,000000, 0,077994
433,000000, 0,077633
432,000000, 0,077631
431,000000, 0,077245
430,000000, 0,077339
429,000000, 0,076771
428,000000, 0,076524
427,000000, 0,076455
426,000000, 0,076114
425,000000, 0,075413
424,000000, 0,075045
423,000000, 0,074349
422,000000, 0,074133
421,000000, 0,073566
420,000000, 0,072884
419,000000, 0,072236
418,000000, 0,071479
417,000000, 0,070900
416,000000, 0,070203
415,000000, 0,069544
414,000000, 0,068648
413,000000, 0,067870
412,000000, 0,066835
411,000000, 0,066233
410,000000, 0,065556
409,000000, 0,064488
408,000000, 0,063810
407,000000, 0,062967
406,000000, 0,062056
405,000000, 0,061499
404,000000, 0,060593
403,000000, 0,059726
402,000000, 0,059118
401,000000, 0,058364
400,000000, 0,057349
399,000000, 0,056608
398,000000, 0,056128
397,000000, 0,055659
396,000000, 0,055105
395,000000, 0,054392
394,000000, 0,053413
393,000000, 0,053293
392,000000, 0,052858
391,000000, 0,051906
390,000000, 0,051674
389,000000, 0,051220
388,000000, 0,050976
387,000000, 0,051010
386,000000, 0,051170
385,000000, 0,051586
384,000000, 0,051837
383,000000, 0,052699
382,000000, 0,053394
381,000000, 0,054764
380,000000, 0,056623
379,000000, 0,058425
378,000000, 0,061343
377,000000, 0,065737
376,000000, 0,070076
375,000000, 0,075895
374,000000, 0,082674
373,000000, 0,091122
372,000000, 0,100831
371,000000, 0,111127
370,000000, 0,123861
369,000000, 0,136881
368,000000, 0,150441
367,000000, 0,165811
366,000000, 0,181544
365,000000, 0,197362
364,000000, 0,212617
363,000000, 0,227880
362,000000, 0,242589
361,000000, 0,257456
360,000000, 0,270355
359,000000, 0,283203
358,000000, 0,295331
357,000000, 0,307431
356,000000, 0,319548
355,000000, 0,331923
354,000000, 0,342718
353,000000, 0,354371
352,000000, 0,368457
351,000000, 0,380421
350,000000, 0,394358
349,000000, 0,408402
348,000000, 0,423809
347,000000, 0,436432
346,000000, 0,451030
345,000000, 0,463878
344,000000, 0,476001
343,000000, 0,486796
342,000000, 0,497071
341,000000, 0,504350
340,000000, 0,510592
339,000000, 0,515203
338,000000, 0,520407
337,000000, 0,524604
336,000000, 0,527057
335,000000, 0,528984
334,000000, 0,529295
333,000000, 0,532632
332,000000, 0,533759
331,000000, 0,534183
330,000000, 0,533665
329,000000, 0,535158
328,000000, 0,534368
327,000000, 0,533955
326,000000, 0,531127
325,000000, 0,529571
324,000000, 0,525629
323,000000, 0,519196
322,000000, 0,514734
321,000000, 0,510605
320,000000, 0,503564
319,000000, 0,497083
318,000000, 0,488768
317,000000, 0,480686
316,000000, 0,474967
315,000000, 0,467513
314,000000, 0,461865
313,000000, 0,454556
312,000000, 0,446849
311,000000, 0,439408
310,000000, 0,431360
309,000000, 0,424610
308,000000, 0,416269
307,000000, 0,408222
306,000000, 0,400663
305,000000, 0,392935
304,000000, 0,385051
303,000000, 0,377417
302,000000, 0,369894
301,000000, 0,362552
300,000000, 0,355088
299,000000, 0,348043
298,000000, 0,340820
297,000000, 0,334085
296,000000, 0,327404
295,000000, 0,321131
294,000000, 0,313558
293,000000, 0,307217
292,000000, 0,300280
291,000000, 0,292832
290,000000, 0,287052
289,000000, 0,280984
288,000000, 0,275092
287,000000, 0,269142
286,000000, 0,264247
285,000000, 0,257889
284,000000, 0,252149
283,000000, 0,246134
282,000000, 0,241260
281,000000, 0,235347
280,000000, 0,230112
279,000000, 0,225223
278,000000, 0,220075
277,000000, 0,214475
276,000000, 0,210340
275,000000, 0,205756
274,000000, 0,201733
273,000000, 0,198009
272,000000, 0,194473
271,000000, 0,191575
270,000000, 0,189126
269,000000, 0,187392
268,000000, 0,186884
267,000000, 0,186214
266,000000, 0,186767
265,000000, 0,188735
264,000000, 0,191438
263,000000, 0,194602
262,000000, 0,199305
261,000000, 0,205416
260,000000, 0,211841
259,000000, 0,219667
258,000000, 0,228316
257,000000, 0,238005
256,000000, 0,248250
255,000000, 0,259078
254,000000, 0,269255
253,000000, 0,280268
252,000000, 0,291503
251,000000, 0,303658
250,000000, 0,318636
