nm, A
550,000000, 0,020452
549,000000, 0,020743
548,000000, 0,021155
547,000000, 0,021499
546,000000, 0,022096
545,000000, 0,022349
544,000000, 0,022823
543,000000, 0,023222
542,000000, 0,023874
541,000000, 0,024070
540,000000, 0,024884
539,000000, 0,025293
538,000000, 0,025951
537,000000, 0,026300
536,000000, 0,026823
535,000000, 0,027713
534,000000, 0,028417
533,000000, 0,029146
532,000000, 0,029677
531,000000, 0,030390
530,000000, 0,031185
529,000000, 0,032105
528,000000, 0,033075
527,000000, 0,033969
526,000000, 0,034788
525,000000, 0,035779
524,000000, 0,036948
523,000000, 0,038112
522,000000, 0,039291
521,000000, 0,040512
520,000000, 0,041757
519,000000, 0,043177
518,000000, 0,044518
517,000000, 0,046088
516,000000, 0,047596
515,000000, 0,049069
514,000000, 0,050833
513,000000, 0,052732
512,000000, 0,054722
511,000000, 0,056745
510,000000, 0,058791
509,000000, 0,060919
508,000000, 0,063251
507,000000, 0,065718
506,000000, 0,068286
505,000000, 0,071015
504,000000, 0,073844
503,000000, 0,077061
502,000000, 0,079957
501,000000, 0,083082
500,000000, 0,086717
499,000000, 0,090466
498,000000, 0,094285
497,000000, 0,098328
496,000000, 0,102703
495,000000, 0,107305
494,000000, 0,111838
493,000000, 0,116824
492,000000, 0,122108
491,000000, 0,127536
490,000000, 0,132795
489,000000, 0,138831
488,000000, 0,145200
487,000000, 0,151541
486,000000, 0,158221
485,000000, 0,165133
484,000000, 0,172469
483,000000, 0,180077
482,000000, 0,187758
481,000000, 0,195823
480,000000, 0,203764
479,000000, 0,211923
478,000000, 0,220699
477,000000, 0,229688
476,000000, 0,238740
475,000000, 0,248116
474,000000, 0,257708
473,000000, 0,267383
472,000000, 0,277538
471,000000, 0,287829
470,000000, 0,298060
469,000000, 0,308312
468,000000, 0,319067
467,000000, 0,329644
466,000000, 0,340477
465,000000, 0,351310
464,000000, 0,362349
463,000000, 0,373261
462,000000, 0,384329
461,000000, 0,395256
460,000000, 0,405938
459,000000, 0,416854
458,000000, 0,427773
457,000000, 0,438601
456,000000, 0,449292
455,000000, 0,460013
454,000000, 0,470278
453,000000, 0,480347
452,000000, 0,490112
451,000000, 0,499998
450,000000, 0,509391
449,000000, 0,518720
448,000000, 0,527880
447,000000, 0,536595
446,000000, 0,545210
445,000000, 0,553978
444,000000, 0,562158
443,000000, 0,570245
442,000000, 0,577880
441,000000, 0,585498
440,000000, 0,592755
439,000000, 0,600067
438,000000, 0,607508
437,000000, 0,614415
436,000000, 0,621612
435,000000, 0,628483
434,000000, 0,635332
433,000000, 0,642019
432,000000, 0,648705
431,000000, 0,655553
430,000000, 0,662418
429,000000, 0,669033
428,000000, 0,675554
427,000000, 0,682167
426,000000, 0,688424
425,000000, 0,694803
424,000000, 0,700953
423,000000, 0,706706
422,000000, 0,712389
421,000000, 0,718139
420,000000, 0,723125
419,000000, 0,727462
418,000000, 0,731366
417,000000, 0,735127
416,000000, 0,738341
415,000000, 0,740680
414,000000, 0,742601
413,000000, 0,743676
412,000000, 0,744098
411,000000, 0,744073
410,000000, 0,743289
409,000000, 0,741982
408,000000, 0,740082
407,000000, 0,737049
406,000000, 0,733263
405,000000, 0,729417
404,000000, 0,725466
403,000000, 0,720616
402,000000, 0,715642
401,000000, 0,710174
400,000000, 0,704112
399,000000, 0,698072
398,000000, 0,691507
397,000000, 0,684991
396,000000, 0,678475
395,000000, 0,671532
394,000000, 0,664607
393,000000, 0,657776
392,000000, 0,650831
391,000000, 0,643654
390,000000, 0,636642
389,000000, 0,629242
388,000000, 0,621803
387,000000, 0,614642
386,000000, 0,607074
385,000000, 0,599798
384,000000, 0,592521
383,000000, 0,584821
382,000000, 0,577273
381,000000, 0,569695
380,000000, 0,562016
379,000000, 0,554821
378,000000, 0,547435
377,000000, 0,537651
376,000000, 0,529482
375,000000, 0,521672
374,000000, 0,511903
373,000000, 0,504051
372,000000, 0,495843
371,000000, 0,486266
370,000000, 0,476476
369,000000, 0,466494
368,000000, 0,456632
367,000000, 0,446308
366,000000, 0,436218
365,000000, 0,425566
364,000000, 0,414931
363,000000, 0,404598
362,000000, 0,394432
361,000000, 0,383213
360,000000, 0,372605
359,000000, 0,362486
358,000000, 0,351893
357,000000, 0,341145
356,000000, 0,329765
355,000000, 0,319774
354,000000, 0,310018
353,000000, 0,299369
352,000000, 0,289311
351,000000, 0,279875
350,000000, 0,270011
349,000000, 0,261112
348,000000, 0,252298
347,000000, 0,243876
346,000000, 0,235513
345,000000, 0,227770
344,000000, 0,220855
343,000000, 0,213089
342,000000, 0,206867
341,000000, 0,200815
340,000000, 0,195405
339,000000, 0,191188
338,000000, 0,187214
337,000000, 0,183572
336,000000, 0,182217
335,000000, 0,181621
334,000000, 0,182180
333,000000, 0,182674
332,000000, 0,183857
331,000000, 0,185474
330,000000, 0,187687
329,000000, 0,188893
328,000000, 0,190155
327,000000, 0,190378
326,000000, 0,190621
325,000000, 0,190115
324,000000, 0,190449
323,000000, 0,190275
322,000000, 0,192153
321,000000, 0,194324
320,000000, 0,197232
319,000000, 0,200447
318,000000, 0,202294
317,000000, 0,203623
316,000000, 0,204238
315,000000, 0,204756
314,000000, 0,205183
313,000000, 0,204798
312,000000, 0,203965
311,000000, 0,203788
310,000000, 0,204034
309,000000, 0,204002
308,000000, 0,204978
307,000000, 0,205306
306,000000, 0,205147
305,000000, 0,206483
304,000000, 0,206550
303,000000, 0,207604
302,000000, 0,207586
301,000000, 0,208415
300,000000, 0,208990
299,000000, 0,210251
298,000000, 0,211028
297,000000, 0,211374
296,000000, 0,213722
295,000000, 0,215237
294,000000, 0,218144
293,000000, 0,220808
292,000000, 0,223374
291,000000, 0,226964
290,000000, 0,231424
289,000000, 0,235949
288,000000, 0,241998
287,000000, 0,247628
286,000000, 0,254247
285,000000, 0,263368
284,000000, 0,271390
283,000000, 0,281426
282,000000, 0,290553
281,000000, 0,299914
280,000000, 0,310453
279,000000, 0,320659
278,000000, 0,330691
277,000000, 0,341037
276,000000, 0,351035
275,000000, 0,362089
274,000000, 0,371929
273,000000, 0,380926
272,000000, 0,389417
271,000000, 0,399369
270,000000, 0,406279
269,000000, 0,413262
268,000000, 0,420760
267,000000, 0,426933
266,000000, 0,432702
265,000000, 0,438712
264,000000, 0,442856
263,000000, 0,446228
262,000000, 0,450748
261,000000, 0,453034
260,000000, 0,455613
259,000000, 0,457300
258,000000, 0,457593
257,000000, 0,458233
256,000000, 0,458081
255,000000, 0,454841
254,000000, 0,453457
253,000000, 0,451705
252,000000, 0,448280
251,000000, 0,444702
250,000000, 0,441278
