nm, A
550,000000, 0,033107
549,000000, 0,033088
548,000000, 0,033141
547,000000, 0,033179
546,000000, 0,033035
545,000000, 0,032946
544,000000, 0,033367
543,000000, 0,033590
542,000000, 0,033317
541,000000, 0,033614
540,000000, 0,033568
539,000000, 0,033680
538,000000, 0,033756
537,000000, 0,033899
536,000000, 0,033822
535,000000, 0,034095
534,000000, 0,033971
533,000000, 0,034426
532,000000, 0,034324
531,000000, 0,034236
530,000000, 0,034629
529,000000, 0,034830
528,000000, 0,034736
527,000000, 0,034777
526,000000, 0,035143
525,000000, 0,035208
524,000000, 0,035165
523,000000, 0,035470
522,000000, 0,035581
521,000000, 0,035755
520,000000, 0,036026
519,000000, 0,036239
518,000000, 0,036238
517,000000, 0,036443
516,000000, 0,036753
515,000000, 0,037007
514,000000, 0,037294
513,000000, 0,037444
512,000000, 0,037791
511,000000, 0,037900
510,000000, 0,038314
509,000000, 0,038526
508,000000, 0,038706
507,000000, 0,039091
506,000000, 0,039326
505,000000, 0,039739
504,000000, 0,039913
503,000000, 0,040325
502,000000, 0,040790
501,000000, 0,041153
500,000000, 0,041483
499,000000, 0,041786
498,000000, 0,042433
497,000000, 0,042651
496,000000, 0,043220
495,000000, 0,043779
494,000000, 0,044071
493,000000, 0,044637
492,000000, 0,045278
491,000000, 0,045638
490,000000, 0,046100
489,000000, 0,046483
488,000000, 0,047093
487,000000, 0,047772
486,000000, 0,048407
485,000000, 0,049310
484,000000, 0,049659
483,000000, 0,050370
482,000000, 0,051214
481,000000, 0,051851
480,000000, 0,052527
479,000000, 0,053047
478,000000, 0,053700
477,000000, 0,054590
476,000000, 0,055264
475,000000, 0,055815
474,000000, 0,056697
473,000000, 0,057573
472,000000, 0,058420
471,000000, 0,059174
470,000000, 0,060133
469,000000, 0,060864
468,000000, 0,061567
467,000000, 0,062713
466,000000, 0,063451
465,000000, 0,064262
464,000000, 0,065010
463,000000, 0,066079
462,000000, 0,066952
461,000000, 0,067884
460,000000, 0,068792
459,000000, 0,069505
458,000000, 0,070556
457,000000, 0,071331
456,000000, 0,072164
455,000000, 0,072862
454,000000, 0,073820
453,000000, 0,074648
452,000000, 0,075688
451,000000, 0,076266
450,000000, 0,077010
449,000000, 0,077772
448,000000, 0,078277
447,000000, 0,079264
446,000000, 0,079971
445,000000, 0,080588
444,000000, 0,081062
443,000000, 0,081976
442,000000, 0,082615
441,000000, 0,082939
440,000000, 0,083557
439,000000, 0,083879
438,000000, 0,084269
437,000000, 0,084532
436,000000, 0,084738
435,000000, 0,085001
434,000000, 0,085243
433,000000, 0,085442
432,000000, 0,085440
431,000000, 0,085294
430,000000, 0,085484
429,000000, 0,085505
428,000000, 0,085309
427,000000, 0,085223
426,000000, 0,084902
425,000000, 0,084495
424,000000, 0,084090
423,000000, 0,083685
422,000000, 0,083277
421,000000, 0,082769
420,000000, 0,081998
419,000000, 0,081296
418,000000, 0,080711
417,000000, 0,080131
416,000000, 0,079353
415,000000, 0,078288
414,000000, 0,077375
413,000000, 0,076460
412,000000, 0,075525
411,000000, 0,074557
410,000000, 0,073529
409,000000, 0,072376
408,000000, 0,071326
407,000000, 0,070319
406,000000, 0,069021
405,000000, 0,068037
404,000000, 0,066922
403,000000, 0,065686
402,000000, 0,064871
401,000000, 0,063945
400,000000, 0,062616
399,000000, 0,061360
398,000000, 0,060374
397,000000, 0,059223
396,000000, 0,057701
395,000000, 0,056442
394,000000, 0,055628
393,000000, 0,054829
392,000000, 0,053838
391,000000, 0,052991
390,000000, 0,052192
389,000000, 0,051104
388,000000, 0,050130
387,000000, 0,049128
386,000000, 0,048255
385,000000, 0,047709
384,000000, 0,047130
383,000000, 0,046384
382,000000, 0,045536
381,000000, 0,044900
380,000000, 0,044169
379,000000, 0,043674
378,000000, 0,043299
377,000000, 0,042852
376,000000, 0,042664
375,000000, 0,042144
374,000000, 0,041877
373,000000, 0,042122
372,000000, 0,042158
371,000000, 0,041425
370,000000, 0,041135
369,000000, 0,041461
368,000000, 0,041649
367,000000, 0,042101
366,000000, 0,042362
365,000000, 0,042652
364,000000, 0,044121
363,000000, 0,045743
362,000000, 0,047598
361,000000, 0,050107
360,000000, 0,053215
359,000000, 0,057313
358,000000, 0,062132
357,000000, 0,067590
356,000000, 0,074712
355,000000, 0,082668
354,000000, 0,091537
353,000000, 0,100151
352,000000, 0,109102
351,000000, 0,118025
350,000000, 0,127333
349,000000, 0,136579
348,000000, 0,145058
347,000000, 0,152376
346,000000, 0,159262
345,000000, 0,165801
344,000000, 0,172861
343,000000, 0,180581
342,000000, 0,187799
341,000000, 0,195241
340,000000, 0,204138
339,000000, 0,214141
338,000000, 0,223976
337,000000, 0,235478
336,000000, 0,246211
335,000000, 0,257536
334,000000, 0,268280
333,000000, 0,278491
332,000000, 0,288372
331,000000, 0,296391
330,000000, 0,303215
329,000000, 0,310092
328,000000, 0,317397
327,000000, 0,321586
326,000000, 0,326561
325,000000, 0,331355
324,000000, 0,336685
323,000000, 0,342104
322,000000, 0,347221
321,000000, 0,352935
320,000000, 0,358607
319,000000, 0,362585
318,000000, 0,366572
317,000000, 0,369826
316,000000, 0,372543
315,000000, 0,373816
314,000000, 0,375818
313,000000, 0,377455
312,000000, 0,377296
311,000000, 0,378079
310,000000, 0,379030
309,000000, 0,379067
308,000000, 0,379233
307,000000, 0,379382
306,000000, 0,378174
305,000000, 0,377927
304,000000, 0,377947
303,000000, 0,377132
302,000000, 0,376032
301,000000, 0,374431
300,000000, 0,372549
299,000000, 0,370341
298,000000, 0,368385
297,000000, 0,366465
296,000000, 0,364190
295,000000, 0,361959
294,000000, 0,359343
293,000000, 0,356581
292,000000, 0,354208
291,000000, 0,352597
290,000000, 0,348584
289,000000, 0,346010
288,000000, 0,342618
287,000000, 0,339400
286,000000, 0,335702
285,000000, 0,332070
284,000000, 0,328280
283,000000, 0,324698
282,000000, 0,320994
281,000000, 0,316683
280,000000, 0,313700
279,000000, 0,309637
278,000000, 0,305603
277,000000, 0,301303
276,000000, 0,296880
275,000000, 0,292291
274,000000, 0,287992
273,000000, 0,284071
272,000000, 0,280583
271,000000, 0,276548
270,000000, 0,272523
269,000000, 0,267847
268,000000, 0,264132
267,000000, 0,261404
266,000000, 0,258390
265,000000, 0,256163
264,000000, 0,255703
263,000000, 0,255603
262,000000, 0,257602
261,000000, 0,261963
260,000000, 0,267148
259,000000, 0,276107
258,000000, 0,285732
257,000000, 0,299956
256,000000, 0,313902
255,000000, 0,331483
254,000000, 0,350064
253,000000, 0,369225
252,000000, 0,390796
251,000000, 0,410582
250,000000, 0,430394
