nm, A
550,000000, 0,031976
549,000000, 0,031747
548,000000, 0,031851
547,000000, 0,031821
546,000000, 0,031814
545,000000, 0,031857
544,000000, 0,031999
543,000000, 0,031900
542,000000, 0,031720
541,000000, 0,031929
540,000000, 0,031996
539,000000, 0,031911
538,000000, 0,031796
537,000000, 0,032116
536,000000, 0,031876
535,000000, 0,031967
534,000000, 0,031823
533,000000, 0,032010
532,000000, 0,031979
531,000000, 0,031967
530,000000, 0,032023
529,000000, 0,031907
528,000000, 0,032028
527,000000, 0,032002
526,000000, 0,032071
525,000000, 0,032028
524,000000, 0,031736
523,000000, 0,031897
522,000000, 0,031964
521,000000, 0,031909
520,000000, 0,031949
519,000000, 0,032072
518,000000, 0,032056
517,000000, 0,032144
516,000000, 0,032266
515,000000, 0,032171
514,000000, 0,031992
513,000000, 0,032067
512,000000, 0,032238
511,000000, 0,032215
510,000000, 0,032182
509,000000, 0,032227
508,000000, 0,032082
507,000000, 0,032214
506,000000, 0,032232
505,000000, 0,032169
504,000000, 0,032147
503,000000, 0,032199
502,000000, 0,032131
501,000000, 0,032148
500,000000, 0,032194
499,000000, 0,032228
498,000000, 0,032345
497,000000, 0,032253
496,000000, 0,032431
495,000000, 0,032386
494,000000, 0,032351
493,000000, 0,032343
492,000000, 0,032220
491,000000, 0,032215
490,000000, 0,032307
489,000000, 0,032432
488,000000, 0,032303
487,000000, 0,032245
486,000000, 0,032116
485,000000, 0,032499
484,000000, 0,032306
483,000000, 0,032436
482,000000, 0,032479
481,000000, 0,032448
480,000000, 0,032665
479,000000, 0,032399
478,000000, 0,032399
477,000000, 0,032461
476,000000, 0,032379
475,000000, 0,032361
474,000000, 0,032499
473,000000, 0,032539
472,000000, 0,032626
471,000000, 0,032556
470,000000, 0,032560
469,000000, 0,032561
468,000000, 0,032630
467,000000, 0,032597
466,000000, 0,032511
465,000000, 0,032541
464,000000, 0,032541
463,000000, 0,032542
462,000000, 0,032563
461,000000, 0,032700
460,000000, 0,032784
459,000000, 0,032674
458,000000, 0,032716
457,000000, 0,032608
456,000000, 0,032552
455,000000, 0,032528
454,000000, 0,032705
453,000000, 0,032731
452,000000, 0,032981
451,000000, 0,032905
450,000000, 0,032468
449,000000, 0,032487
448,000000, 0,032560
447,000000, 0,032756
446,000000, 0,032895
445,000000, 0,032784
444,000000, 0,032819
443,000000, 0,033059
442,000000, 0,033074
441,000000, 0,033024
440,000000, 0,033120
439,000000, 0,033001
438,000000, 0,033017
437,000000, 0,032921
436,000000, 0,033011
435,000000, 0,033159
434,000000, 0,032971
433,000000, 0,032935
432,000000, 0,032929
431,000000, 0,033057
430,000000, 0,033229
429,000000, 0,033204
428,000000, 0,033082
427,000000, 0,033093
426,000000, 0,033176
425,000000, 0,033036
424,000000, 0,032935
423,000000, 0,033035
422,000000, 0,033141
421,000000, 0,033216
420,000000, 0,032991
419,000000, 0,032959
418,000000, 0,033033
417,000000, 0,033169
416,000000, 0,033311
415,000000, 0,033329
414,000000, 0,033281
413,000000, 0,033160
412,000000, 0,033408
411,000000, 0,033347
410,000000, 0,033280
409,000000, 0,033128
408,000000, 0,033314
407,000000, 0,033625
406,000000, 0,033394
405,000000, 0,033425
404,000000, 0,033426
403,000000, 0,033370
402,000000, 0,033492
401,000000, 0,033648
400,000000, 0,033856
399,000000, 0,033643
398,000000, 0,033617
397,000000, 0,033676
396,000000, 0,033362
395,000000, 0,033462
394,000000, 0,033561
393,000000, 0,033448
392,000000, 0,033501
391,000000, 0,033649
390,000000, 0,033865
389,000000, 0,033793
388,000000, 0,033716
387,000000, 0,033640
386,000000, 0,033772
385,000000, 0,033992
384,000000, 0,034031
383,000000, 0,033974
382,000000, 0,033808
381,000000, 0,034018
380,000000, 0,034022
379,000000, 0,034321
378,000000, 0,034652
377,000000, 0,033825
376,000000, 0,033990
375,000000, 0,034509
374,000000, 0,034029
373,000000, 0,034045
372,000000, 0,034286
371,000000, 0,034312
370,000000, 0,034402
369,000000, 0,034597
368,000000, 0,034538
367,000000, 0,034574
366,000000, 0,034076
365,000000, 0,034115
364,000000, 0,034648
363,000000, 0,034727
362,000000, 0,034915
361,000000, 0,034813
360,000000, 0,034728
359,000000, 0,034812
358,000000, 0,034719
357,000000, 0,034743
356,000000, 0,035119
355,000000, 0,034943
354,000000, 0,035244
353,000000, 0,034886
352,000000, 0,034820
351,000000, 0,034765
350,000000, 0,034687
349,000000, 0,034746
348,000000, 0,035314
347,000000, 0,035458
346,000000, 0,035476
345,000000, 0,034715
344,000000, 0,034715
343,000000, 0,034976
342,000000, 0,035241
341,000000, 0,035278
340,000000, 0,035424
339,000000, 0,035680
338,000000, 0,035488
337,000000, 0,035388
336,000000, 0,035082
335,000000, 0,034888
334,000000, 0,035008
333,000000, 0,036009
332,000000, 0,035929
331,000000, 0,035443
330,000000, 0,035820
329,000000, 0,036022
328,000000, 0,036424
327,000000, 0,035196
326,000000, 0,035895
325,000000, 0,036037
324,000000, 0,035741
323,000000, 0,035910
322,000000, 0,036301
321,000000, 0,036513
320,000000, 0,036303
319,000000, 0,036947
318,000000, 0,036586
317,000000, 0,036588
316,000000, 0,037184
315,000000, 0,036271
314,000000, 0,036396
313,000000, 0,036869
312,000000, 0,036682
311,000000, 0,036684
310,000000, 0,037669
309,000000, 0,037809
308,000000, 0,036633
307,000000, 0,037243
306,000000, 0,037116
305,000000, 0,037416
304,000000, 0,038251
303,000000, 0,038596
302,000000, 0,038279
301,000000, 0,038284
300,000000, 0,038743
299,000000, 0,037966
298,000000, 0,038076
297,000000, 0,039556
296,000000, 0,039569
295,000000, 0,039578
294,000000, 0,039479
293,000000, 0,039541
292,000000, 0,039708
291,000000, 0,040669
290,000000, 0,040725
289,000000, 0,041289
288,000000, 0,041251
287,000000, 0,041373
286,000000, 0,041782
285,000000, 0,041724
284,000000, 0,041616
283,000000, 0,041914
282,000000, 0,042041
281,000000, 0,042272
280,000000, 0,042607
279,000000, 0,042767
278,000000, 0,043004
277,000000, 0,043186
276,000000, 0,043707
275,000000, 0,043398
274,000000, 0,043918
273,000000, 0,043857
272,000000, 0,044223
271,000000, 0,045292
270,000000, 0,045074
269,000000, 0,044455
268,000000, 0,044974
267,000000, 0,045822
266,000000, 0,046014
265,000000, 0,045451
264,000000, 0,046293
263,000000, 0,046268
262,000000, 0,046169
261,000000, 0,047032
260,000000, 0,047708
259,000000, 0,048480
258,000000, 0,049437
257,000000, 0,051003
256,000000, 0,051500
255,000000, 0,053196
254,000000, 0,053797
253,000000, 0,055427
252,000000, 0,056932
251,000000, 0,057674
250,000000, 0,058467
