nm, A
550,000000, 0,035639
549,000000, 0,036124
548,000000, 0,036604
547,000000, 0,037062
546,000000, 0,037795
545,000000, 0,038478
544,000000, 0,039361
543,000000, 0,039541
542,000000, 0,040473
541,000000, 0,041038
540,000000, 0,041899
539,000000, 0,042528
538,000000, 0,043374
537,000000, 0,044297
536,000000, 0,045018
535,000000, 0,045925
534,000000, 0,046832
533,000000, 0,047789
532,000000, 0,048662
531,000000, 0,049593
530,000000, 0,050794
529,000000, 0,051921
528,000000, 0,053170
527,000000, 0,054259
526,000000, 0,055551
525,000000, 0,056828
524,000000, 0,058030
523,000000, 0,059636
522,000000, 0,061028
521,000000, 0,062562
520,000000, 0,064002
519,000000, 0,065672
518,000000, 0,067254
517,000000, 0,069300
516,000000, 0,071071
515,000000, 0,072780
514,000000, 0,074504
513,000000, 0,076510
512,000000, 0,078834
511,000000, 0,081022
510,000000, 0,083282
509,000000, 0,085444
508,000000, 0,087910
507,000000, 0,090360
506,000000, 0,093023
505,000000, 0,095518
504,000000, 0,098529
503,000000, 0,101267
502,000000, 0,104302
501,000000, 0,107141
500,000000, 0,110542
499,000000, 0,113882
498,000000, 0,117153
497,000000, 0,120747
496,000000, 0,124434
495,000000, 0,128303
494,000000, 0,132076
493,000000, 0,136248
492,000000, 0,140425
491,000000, 0,144763
490,000000, 0,149156
489,000000, 0,153904
488,000000, 0,158640
487,000000, 0,163210
486,000000, 0,168106
485,000000, 0,173527
484,000000, 0,178943
483,000000, 0,184322
482,000000, 0,189767
481,000000, 0,195573
480,000000, 0,201589
479,000000, 0,207260
478,000000, 0,213454
477,000000, 0,219742
476,000000, 0,225888
475,000000, 0,232380
474,000000, 0,239172
473,000000, 0,245735
472,000000, 0,252444
471,000000, 0,259041
470,000000, 0,266005
469,000000, 0,272861
468,000000, 0,279668
467,000000, 0,286572
466,000000, 0,293584
465,000000, 0,300676
464,000000, 0,307647
463,000000, 0,314419
462,000000, 0,321432
461,000000, 0,328186
460,000000, 0,334836
459,000000, 0,341600
458,000000, 0,348470
457,000000, 0,355015
456,000000, 0,361188
455,000000, 0,367742
454,000000, 0,373811
453,000000, 0,379540
452,000000, 0,385310
451,000000, 0,390873
450,000000, 0,396205
449,000000, 0,401545
448,000000, 0,406613
447,000000, 0,411355
446,000000, 0,415938
445,000000, 0,420348
444,000000, 0,424318
443,000000, 0,428763
442,000000, 0,433005
441,000000, 0,436560
440,000000, 0,440175
439,000000, 0,443792
438,000000, 0,447300
437,000000, 0,450276
436,000000, 0,453334
435,000000, 0,456651
434,000000, 0,459501
433,000000, 0,461996
432,000000, 0,464954
431,000000, 0,468076
430,000000, 0,470711
429,000000, 0,473222
428,000000, 0,476026
427,000000, 0,478702
426,000000, 0,481169
425,000000, 0,483708
424,000000, 0,485971
423,000000, 0,488586
422,000000, 0,490700
421,000000, 0,492548
420,000000, 0,494250
419,000000, 0,495924
418,000000, 0,497294
417,000000, 0,498226
416,000000, 0,499349
415,000000, 0,499920
414,000000, 0,499891
413,000000, 0,500123
412,000000, 0,500174
411,000000, 0,499378
410,000000, 0,498477
409,000000, 0,497493
408,000000, 0,496407
407,000000, 0,494669
406,000000, 0,492457
405,000000, 0,490875
404,000000, 0,489177
403,000000, 0,486865
402,000000, 0,484946
401,000000, 0,483180
400,000000, 0,481308
399,000000, 0,479426
398,000000, 0,477590
397,000000, 0,476378
396,000000, 0,475275
395,000000, 0,474242
394,000000, 0,473408
393,000000, 0,472643
392,000000, 0,472552
391,000000, 0,472861
390,000000, 0,473242
389,000000, 0,474026
388,000000, 0,475045
387,000000, 0,476633
386,000000, 0,478086
385,000000, 0,479532
384,000000, 0,481423
383,000000, 0,482961
382,000000, 0,484487
381,000000, 0,486070
380,000000, 0,488055
379,000000, 0,490696
378,000000, 0,491952
377,000000, 0,492001
376,000000, 0,491831
375,000000, 0,491582
374,000000, 0,491244
373,000000, 0,491223
372,000000, 0,489159
371,000000, 0,486302
370,000000, 0,484120
369,000000, 0,480327
368,000000, 0,476456
367,000000, 0,471917
366,000000, 0,467004
365,000000, 0,461309
364,000000, 0,454096
363,000000, 0,447143
362,000000, 0,439949
361,000000, 0,431935
360,000000, 0,424833
359,000000, 0,417125
358,000000, 0,408434
357,000000, 0,399519
356,000000, 0,390324
355,000000, 0,381171
354,000000, 0,372026
353,000000, 0,362613
352,000000, 0,353774
351,000000, 0,344321
350,000000, 0,334933
349,000000, 0,325831
348,000000, 0,316520
347,000000, 0,307403
346,000000, 0,298701
345,000000, 0,291288
344,000000, 0,283612
343,000000, 0,275981
342,000000, 0,268978
341,000000, 0,263005
340,000000, 0,256611
339,000000, 0,250705
338,000000, 0,245473
337,000000, 0,241601
336,000000, 0,238665
335,000000, 0,237051
334,000000, 0,235051
333,000000, 0,233804
332,000000, 0,233613
331,000000, 0,232331
330,000000, 0,232120
329,000000, 0,232251
328,000000, 0,231619
327,000000, 0,230364
326,000000, 0,228923
325,000000, 0,227506
324,000000, 0,226905
323,000000, 0,225763
322,000000, 0,225840
321,000000, 0,226011
320,000000, 0,226545
319,000000, 0,225071
318,000000, 0,224681
317,000000, 0,224009
316,000000, 0,222923
315,000000, 0,221939
314,000000, 0,221129
313,000000, 0,219959
312,000000, 0,217752
311,000000, 0,217171
310,000000, 0,215999
309,000000, 0,214726
308,000000, 0,214613
307,000000, 0,214510
306,000000, 0,213762
305,000000, 0,213404
304,000000, 0,212468
303,000000, 0,212714
302,000000, 0,212680
301,000000, 0,212077
300,000000, 0,212476
299,000000, 0,212956
298,000000, 0,213693
297,000000, 0,213924
296,000000, 0,215351
295,000000, 0,216240
294,000000, 0,218683
293,000000, 0,221155
292,000000, 0,222971
291,000000, 0,226116
290,000000, 0,229352
289,000000, 0,233171
288,000000, 0,238734
287,000000, 0,244285
286,000000, 0,250181
285,000000, 0,257740
284,000000, 0,265527
283,000000, 0,274322
282,000000, 0,284310
281,000000, 0,293776
280,000000, 0,304847
279,000000, 0,315768
278,000000, 0,328625
277,000000, 0,340469
276,000000, 0,352692
275,000000, 0,366345
274,000000, 0,378955
273,000000, 0,391322
272,000000, 0,404097
271,000000, 0,416396
270,000000, 0,427633
269,000000, 0,438873
268,000000, 0,449208
267,000000, 0,458114
266,000000, 0,465890
265,000000, 0,473573
264,000000, 0,479418
263,000000, 0,484324
262,000000, 0,489106
261,000000, 0,491842
260,000000, 0,495010
259,000000, 0,497944
258,000000, 0,497871
257,000000, 0,498257
256,000000, 0,497294
255,000000, 0,495698
254,000000, 0,493680
253,000000, 0,490646
252,000000, 0,488447
251,000000, 0,483608
250,000000, 0,479553
