nm, A
800,000000, -0,034176
799,000000, -0,033301
798,000000, -0,033715
797,000000, -0,033172
796,000000, -0,033305
795,000000, -0,033353
794,000000, -0,033483
793,000000, -0,033201
792,000000, -0,032830
791,000000, -0,032990
790,000000, -0,031734
789,000000, -0,031812
788,000000, -0,032302
787,000000, -0,031931
786,000000, -0,031031
785,000000, -0,030759
784,000000, -0,031149
783,000000, -0,031239
782,000000, -0,030617
781,000000, -0,030518
780,000000, -0,029753
779,000000, -0,029225
778,000000, -0,028809
777,000000, -0,028851
776,000000, -0,028821
775,000000, -0,028195
774,000000, -0,027694
773,000000, -0,027218
772,000000, -0,027821
771,000000, -0,027386
770,000000, -0,026987
769,000000, -0,026404
768,000000, -0,026608
767,000000, -0,025784
766,000000, -0,025696
765,000000, -0,025187
764,000000, -0,025103
763,000000, -0,024376
762,000000, -0,024064
761,000000, -0,023913
760,000000, -0,023889
759,000000, -0,023366
758,000000, -0,023007
757,000000, -0,022839
756,000000, -0,022199
755,000000, -0,022314
754,000000, -0,021639
753,000000, -0,021342
752,000000, -0,021207
751,000000, -0,020970
750,000000, -0,020801
749,000000, -0,020430
748,000000, -0,019939
747,000000, -0,019897
746,000000, -0,019604
745,000000, -0,018774
744,000000, -0,018998
743,000000, -0,018141
742,000000, -0,017871
741,000000, -0,017499
740,000000, -0,017424
739,000000, -0,016813
738,000000, -0,016478
737,000000, -0,016327
736,000000, -0,015504
735,000000, -0,014889
734,000000, -0,014340
733,000000, -0,013699
732,000000, -0,012818
731,000000, -0,012487
730,000000, -0,012336
729,000000, -0,012234
728,000000, -0,011932
727,000000, -0,012279
726,000000, -0,012601
725,000000, -0,012674
724,000000, -0,012395
723,000000, -0,012486
722,000000, -0,012600
721,000000, -0,012227
720,000000, -0,012217
719,000000, -0,012811
718,000000, -0,012212
717,000000, -0,011939
716,000000, -0,011890
715,000000, -0,011943
714,000000, -0,011712
713,000000, -0,011435
712,000000, -0,010940
711,000000, -0,010851
710,000000, -0,010964
709,000000, -0,010530
708,000000, -0,010298
707,000000, -0,010012
706,000000, -0,010037
705,000000, -0,009962
704,000000, -0,009588
703,000000, -0,009366
702,000000, -0,008984
701,000000, -0,008947
700,000000, -0,008883
699,000000, -0,008642
698,000000, -0,008504
697,000000, -0,008120
696,000000, -0,007898
695,000000, -0,007602
694,000000, -0,007593
693,000000, -0,007545
692,000000, -0,007259
691,000000, -0,007020
690,000000, -0,006516
689,000000, -0,006432
688,000000, -0,006530
687,000000, -0,006195
686,000000, -0,005680
685,000000, -0,005553
684,000000, -0,005748
683,000000, -0,005262
682,000000, -0,005121
681,000000, -0,005150
680,000000, -0,004775
679,000000, -0,004804
678,000000, -0,004695
677,000000, -0,004405
676,000000, -0,004265
675,000000, -0,004159
674,000000, -0,004007
673,000000, -0,003967
672,000000, -0,003832
671,000000, -0,003650
670,000000, -0,003238
669,000000, -0,002909
668,000000, -0,002885
667,000000, -0,002828
666,000000, -0,002674
665,000000, -0,002582
664,000000, -0,002564
663,000000, -0,002468
662,000000, -0,002329
661,000000, -0,002221
660,000000, -0,002039
659,000000, -0,001840
658,000000, -0,001703
657,000000, -0,001620
656,000000, -0,001737
655,000000, -0,001696
654,000000, -0,001514
653,000000, -0,001321
652,000000, -0,001224
651,000000, -0,001239
650,000000, -0,001207
649,000000, -0,000976
648,000000, -0,000777
647,000000, -0,000493
646,000000, -0,000330
645,000000, -0,000365
644,000000, -0,000392
643,000000, -0,000248
642,000000, -0,000022
641,000000, 0,000074
640,000000, 0,000050
639,000000, 0,000183
638,000000, 0,000416
637,000000, 0,000432
636,000000, 0,000585
635,000000, 0,000788
634,000000, 0,000741
633,000000, 0,000832
632,000000, 0,000983
631,000000, 0,001228
630,000000, 0,001461
629,000000, 0,001375
628,000000, 0,001386
627,000000, 0,001584
626,000000, 0,001839
625,000000, 0,001845
624,000000, 0,001889
623,000000, 0,002085
622,000000, 0,002124
621,000000, 0,002202
620,000000, 0,002281
619,000000, 0,002373
618,000000, 0,002404
617,000000, 0,002343
616,000000, 0,002300
615,000000, 0,002451
614,000000, 0,002557
613,000000, 0,002622
612,000000, 0,002551
611,000000, 0,002607
610,000000, 0,002681
609,000000, 0,002944
608,000000, 0,002926
607,000000, 0,002944
606,000000, 0,003025
605,000000, 0,002958
604,000000, 0,002913
603,000000, 0,003132
602,000000, 0,003248
601,000000, 0,003255
600,000000, 0,003268
599,000000, 0,003361
598,000000, 0,003414
597,000000, 0,003505
596,000000, 0,003508
595,000000, 0,003515
594,000000, 0,003507
593,000000, 0,003676
592,000000, 0,003615
591,000000, 0,003500
590,000000, 0,003645
589,000000, 0,003590
588,000000, 0,003674
587,000000, 0,003720
586,000000, 0,003793
585,000000, 0,003840
584,000000, 0,003858
583,000000, 0,003851
582,000000, 0,003978
581,000000, 0,004136
580,000000, 0,004224
579,000000, 0,004189
578,000000, 0,004103
577,000000, 0,004000
576,000000, 0,004134
575,000000, 0,004118
574,000000, 0,004167
573,000000, 0,004244
572,000000, 0,004348
571,000000, 0,004421
570,000000, 0,004407
569,000000, 0,004373
568,000000, 0,004561
567,000000, 0,004424
566,000000, 0,004253
565,000000, 0,004366
564,000000, 0,004464
563,000000, 0,004562
562,000000, 0,004146
561,000000, 0,004078
560,000000, 0,004048
559,000000, 0,004257
558,000000, 0,004397
557,000000, 0,004276
556,000000, 0,004253
555,000000, 0,004127
554,000000, 0,004194
553,000000, 0,004291
552,000000, 0,004147
551,000000, 0,004310
550,000000, 0,004363
549,000000, 0,004383
548,000000, 0,004367
547,000000, 0,004508
546,000000, 0,004486
545,000000, 0,004432
544,000000, 0,004335
543,000000, 0,004379
542,000000, 0,004450
541,000000, 0,004418
540,000000, 0,004434
539,000000, 0,004464
538,000000, 0,004366
537,000000, 0,004295
536,000000, 0,004349
535,000000, 0,004293
534,000000, 0,004406
533,000000, 0,004385
532,000000, 0,004302
531,000000, 0,004484
530,000000, 0,004383
529,000000, 0,004383
528,000000, 0,004389
527,000000, 0,004408
526,000000, 0,004341
525,000000, 0,004433
524,000000, 0,004477
523,000000, 0,004422
522,000000, 0,004427
521,000000, 0,004392
520,000000, 0,004285
519,000000, 0,004220
518,000000, 0,004319
517,000000, 0,004223
516,000000, 0,004241
515,000000, 0,004255
514,000000, 0,004245
513,000000, 0,004139
512,000000, 0,004169
511,000000, 0,004142
510,000000, 0,004167
509,000000, 0,004213
508,000000, 0,004298
507,000000, 0,004223
506,000000, 0,004475
505,000000, 0,004511
504,000000, 0,004527
503,000000, 0,004575
502,000000, 0,004612
501,000000, 0,004633
500,000000, 0,004838
499,000000, 0,004836
498,000000, 0,005055
497,000000, 0,005112
496,000000, 0,005172
495,000000, 0,005338
494,000000, 0,005328
493,000000, 0,005273
492,000000, 0,005391
491,000000, 0,005389
490,000000, 0,005529
489,000000, 0,005455
488,000000, 0,005371
487,000000, 0,005364
486,000000, 0,005594
485,000000, 0,005492
484,000000, 0,005413
483,000000, 0,005400
482,000000, 0,005323
481,000000, 0,005059
480,000000, 0,005303
479,000000, 0,005217
478,000000, 0,005320
477,000000, 0,005247
476,000000, 0,005245
475,000000, 0,005151
474,000000, 0,005247
473,000000, 0,005281
472,000000, 0,005310
471,000000, 0,005407
470,000000, 0,005323
469,000000, 0,005375
468,000000, 0,005583
467,000000, 0,005692
466,000000, 0,005828
465,000000, 0,005879
464,000000, 0,005941
463,000000, 0,006150
462,000000, 0,006249
461,000000, 0,006368
460,000000, 0,006516
459,000000, 0,006542
458,000000, 0,006427
457,000000, 0,006295
456,000000, 0,006517
455,000000, 0,006649
454,000000, 0,006582
453,000000, 0,006569
452,000000, 0,006579
451,000000, 0,006499
450,000000, 0,006425
449,000000, 0,006209
448,000000, 0,006652
447,000000, 0,006409
446,000000, 0,006192
445,000000, 0,006452
444,000000, 0,006417
443,000000, 0,006217
442,000000, 0,006331
441,000000, 0,006304
440,000000, 0,006287
439,000000, 0,006505
438,000000, 0,006361
437,000000, 0,006408
436,000000, 0,006564
435,000000, 0,006539
434,000000, 0,006512
433,000000, 0,006329
432,000000, 0,006424
431,000000, 0,006601
430,000000, 0,006509
429,000000, 0,006760
428,000000, 0,006452
427,000000, 0,006677
426,000000, 0,006532
425,000000, 0,006626
424,000000, 0,006777
423,000000, 0,006737
422,000000, 0,006699
421,000000, 0,006770
420,000000, 0,006644
419,000000, 0,006897
418,000000, 0,007049
417,000000, 0,007073
416,000000, 0,006978
415,000000, 0,007253
414,000000, 0,007095
413,000000, 0,007169
412,000000, 0,007327
411,000000, 0,007201
410,000000, 0,007435
409,000000, 0,007606
408,000000, 0,007693
407,000000, 0,007758
406,000000, 0,007732
405,000000, 0,007709
404,000000, 0,007933
403,000000, 0,008000
402,000000, 0,008180
401,000000, 0,008251
400,000000, 0,008276
399,000000, 0,008373
398,000000, 0,008536
397,000000, 0,008660
396,000000, 0,008937
395,000000, 0,008725
394,000000, 0,008714
393,000000, 0,008505
392,000000, 0,008891
391,000000, 0,008961
390,000000, 0,009150
389,000000, 0,009109
388,000000, 0,009183
387,000000, 0,009492
386,000000, 0,009522
385,000000, 0,009746
384,000000, 0,009702
383,000000, 0,009893
382,000000, 0,009857
381,000000, 0,009811
380,000000, 0,010368
379,000000, 0,010395
378,000000, 0,010569
377,000000, 0,010640
376,000000, 0,010173
375,000000, 0,010592
374,000000, 0,011171
373,000000, 0,011111
372,000000, 0,011244
371,000000, 0,011614
370,000000, 0,011156
369,000000, 0,011483
368,000000, 0,011557
367,000000, 0,011417
366,000000, 0,011984
365,000000, 0,012251
364,000000, 0,012511
363,000000, 0,012524
362,000000, 0,012453
361,000000, 0,012880
360,000000, 0,013155
359,000000, 0,013525
358,000000, 0,013679
357,000000, 0,013699
356,000000, 0,013654
355,000000, 0,014285
354,000000, 0,014776
353,000000, 0,014720
352,000000, 0,014742
351,000000, 0,014802
350,000000, 0,015138
349,000000, 0,015263
348,000000, 0,015405
347,000000, 0,015936
346,000000, 0,016390
345,000000, 0,016184
344,000000, 0,016317
343,000000, 0,016678
342,000000, 0,016820
341,000000, 0,016885
340,000000, 0,017030
339,000000, 0,017769
338,000000, 0,018318
337,000000, 0,018088
336,000000, 0,018562
335,000000, 0,019279
334,000000, 0,019542
333,000000, 0,019846
332,000000, 0,020115
331,000000, 0,020572
330,000000, 0,020734
329,000000, 0,020941
328,000000, 0,021070
327,000000, 0,021325
326,000000, 0,022475
325,000000, 0,022571
324,000000, 0,022439
323,000000, 0,022804
322,000000, 0,023116
321,000000, 0,023458
320,000000, 0,023596
319,000000, 0,024778
318,000000, 0,026279
317,000000, 0,026945
316,000000, 0,026996
315,000000, 0,027350
314,000000, 0,028109
313,000000, 0,028316
312,000000, 0,028725
311,000000, 0,029291
310,000000, 0,029885
309,000000, 0,030355
308,000000, 0,030517
307,000000, 0,030953
306,000000, 0,031731
305,000000, 0,032092
304,000000, 0,032964
303,000000, 0,033886
302,000000, 0,034133
301,000000, 0,034474
300,000000, 0,035218
299,000000, 0,035761
298,000000, 0,036535
297,000000, 0,037735
296,000000, 0,038901
295,000000, 0,039926
294,000000, 0,040369
293,000000, 0,041053
292,000000, 0,042215
291,000000, 0,043003
290,000000, 0,043839
289,000000, 0,044802
288,000000, 0,045757
287,000000, 0,046743
286,000000, 0,047609
285,000000, 0,048713
284,000000, 0,049748
283,000000, 0,050652
282,000000, 0,051411
281,000000, 0,052071
280,000000, 0,052782
279,000000, 0,053750
278,000000, 0,055037
277,000000, 0,055787
276,000000, 0,056376
275,000000, 0,057040
274,000000, 0,057871
273,000000, 0,058387
272,000000, 0,058837
271,000000, 0,059240
270,000000, 0,059975
269,000000, 0,060723
268,000000, 0,061103
267,000000, 0,061980
266,000000, 0,062353
265,000000, 0,062968
264,000000, 0,063488
263,000000, 0,063390
262,000000, 0,064233
261,000000, 0,064860
260,000000, 0,065765
259,000000, 0,066630
258,000000, 0,067766
257,000000, 0,069510
256,000000, 0,070887
255,000000, 0,072221
254,000000, 0,074019
253,000000, 0,075952
252,000000, 0,078010
251,000000, 0,079423
250,000000, 0,080958
