nm, A
650,000000, -0,003762
649,000000, -0,003607
648,000000, -0,004069
647,000000, -0,003367
646,000000, -0,003348
645,000000, -0,003287
644,000000, -0,002991
643,000000, -0,003112
642,000000, -0,003070
641,000000, -0,002837
640,000000, -0,002769
639,000000, -0,002476
638,000000, -0,002665
637,000000, -0,002463
636,000000, -0,002261
635,000000, -0,002392
634,000000, -0,002025
633,000000, -0,002078
632,000000, -0,001854
631,000000, -0,001666
630,000000, -0,001618
629,000000, -0,001729
628,000000, -0,001612
627,000000, -0,001497
626,000000, -0,001401
625,000000, -0,000902
624,000000, -0,001033
623,000000, -0,000792
622,000000, -0,000542
621,000000, -0,000544
620,000000, -0,000528
619,000000, -0,000644
618,000000, -0,000497
617,000000, -0,000498
616,000000, -0,000218
615,000000, -0,000405
614,000000, -0,000461
613,000000, -0,000235
612,000000, -0,000284
611,000000, 0,000025
610,000000, -0,000152
609,000000, 0,000011
608,000000, 0,000017
607,000000, -0,000038
606,000000, -0,000066
605,000000, 0,000017
604,000000, 0,000175
603,000000, 0,000307
602,000000, 0,000372
601,000000, 0,000289
600,000000, 0,000542
599,000000, 0,000551
598,000000, 0,000449
597,000000, 0,000644
596,000000, 0,000657
595,000000, 0,000639
594,000000, 0,000860
593,000000, 0,000789
592,000000, 0,000863
591,000000, 0,000999
590,000000, 0,000955
589,000000, 0,000906
588,000000, 0,000966
587,000000, 0,000996
586,000000, 0,001194
585,000000, 0,001222
584,000000, 0,000919
583,000000, 0,001095
582,000000, 0,001189
581,000000, 0,001325
580,000000, 0,001213
579,000000, 0,001145
578,000000, 0,001205
577,000000, 0,001193
576,000000, 0,001321
575,000000, 0,001495
574,000000, 0,001507
573,000000, 0,001528
572,000000, 0,001483
571,000000, 0,001549
570,000000, 0,001510
569,000000, 0,001596
568,000000, 0,001582
567,000000, 0,001744
566,000000, 0,001779
565,000000, 0,001670
564,000000, 0,001705
563,000000, 0,001564
562,000000, 0,001100
561,000000, 0,001102
560,000000, 0,001247
559,000000, 0,001284
558,000000, 0,001142
557,000000, 0,001237
556,000000, 0,001317
555,000000, 0,001243
554,000000, 0,001252
553,000000, 0,001392
552,000000, 0,001321
551,000000, 0,001428
550,000000, 0,001564
549,000000, 0,001469
548,000000, 0,001500
547,000000, 0,001555
546,000000, 0,001461
545,000000, 0,001558
544,000000, 0,001756
543,000000, 0,001565
542,000000, 0,001560
541,000000, 0,001523
540,000000, 0,001470
539,000000, 0,001442
538,000000, 0,001432
537,000000, 0,001486
536,000000, 0,001552
535,000000, 0,001584
534,000000, 0,001558
533,000000, 0,001640
532,000000, 0,001607
531,000000, 0,001578
530,000000, 0,001710
529,000000, 0,001686
528,000000, 0,001660
527,000000, 0,001635
526,000000, 0,001542
525,000000, 0,001514
524,000000, 0,001489
523,000000, 0,001349
522,000000, 0,001394
521,000000, 0,001319
520,000000, 0,001266
519,000000, 0,001245
518,000000, 0,001228
517,000000, 0,001191
516,000000, 0,001032
515,000000, 0,001017
514,000000, 0,001046
513,000000, 0,000892
512,000000, 0,000785
511,000000, 0,000661
510,000000, 0,000622
509,000000, 0,000659
508,000000, 0,000588
507,000000, 0,000498
506,000000, 0,000587
505,000000, 0,000635
504,000000, 0,000621
503,000000, 0,000565
502,000000, 0,000623
501,000000, 0,000866
500,000000, 0,000934
499,000000, 0,000995
498,000000, 0,001043
497,000000, 0,001136
496,000000, 0,001316
495,000000, 0,001396
494,000000, 0,001514
493,000000, 0,001552
492,000000, 0,001672
491,000000, 0,001839
490,000000, 0,001866
489,000000, 0,001843
488,000000, 0,001822
487,000000, 0,001904
486,000000, 0,001829
485,000000, 0,001694
484,000000, 0,001888
483,000000, 0,001961
482,000000, 0,001822
481,000000, 0,001811
480,000000, 0,001826
479,000000, 0,001858
478,000000, 0,001911
477,000000, 0,001864
476,000000, 0,001806
475,000000, 0,001823
474,000000, 0,001803
473,000000, 0,001810
472,000000, 0,001874
471,000000, 0,001991
470,000000, 0,002063
469,000000, 0,001991
468,000000, 0,002113
467,000000, 0,002300
466,000000, 0,002375
465,000000, 0,002527
464,000000, 0,002510
463,000000, 0,002701
462,000000, 0,002833
461,000000, 0,002934
460,000000, 0,003219
459,000000, 0,003405
458,000000, 0,003245
457,000000, 0,003243
456,000000, 0,003213
455,000000, 0,003129
454,000000, 0,003125
453,000000, 0,003038
452,000000, 0,003134
451,000000, 0,003294
450,000000, 0,003206
449,000000, 0,003185
448,000000, 0,003179
447,000000, 0,003033
446,000000, 0,002936
445,000000, 0,003036
444,000000, 0,002983
443,000000, 0,003001
442,000000, 0,003200
441,000000, 0,003220
440,000000, 0,003286
439,000000, 0,003170
438,000000, 0,003163
437,000000, 0,003251
436,000000, 0,003256
435,000000, 0,003379
434,000000, 0,003189
433,000000, 0,003058
432,000000, 0,003197
431,000000, 0,003222
430,000000, 0,003261
429,000000, 0,003267
428,000000, 0,003114
427,000000, 0,003402
426,000000, 0,003260
425,000000, 0,003246
424,000000, 0,003363
423,000000, 0,003397
422,000000, 0,003401
421,000000, 0,003318
420,000000, 0,003485
419,000000, 0,003394
418,000000, 0,003570
417,000000, 0,003577
416,000000, 0,003510
415,000000, 0,003699
414,000000, 0,003695
413,000000, 0,003698
412,000000, 0,003541
411,000000, 0,003750
410,000000, 0,003998
409,000000, 0,004292
408,000000, 0,004259
407,000000, 0,004308
406,000000, 0,004179
405,000000, 0,004228
404,000000, 0,004555
403,000000, 0,004340
402,000000, 0,004335
401,000000, 0,004451
400,000000, 0,004676
399,000000, 0,004949
398,000000, 0,005229
397,000000, 0,004991
396,000000, 0,004903
395,000000, 0,005022
394,000000, 0,004995
393,000000, 0,005116
392,000000, 0,005417
391,000000, 0,005482
390,000000, 0,005481
389,000000, 0,005689
388,000000, 0,005643
387,000000, 0,005689
386,000000, 0,005592
385,000000, 0,005794
384,000000, 0,005851
383,000000, 0,006044
382,000000, 0,005696
381,000000, 0,006284
380,000000, 0,006008
379,000000, 0,006511
378,000000, 0,007458
377,000000, 0,006971
376,000000, 0,007165
375,000000, 0,007376
374,000000, 0,007095
373,000000, 0,007457
372,000000, 0,007263
371,000000, 0,007611
370,000000, 0,007670
369,000000, 0,007952
368,000000, 0,007748
367,000000, 0,008603
366,000000, 0,008764
365,000000, 0,008579
364,000000, 0,008415
363,000000, 0,008914
362,000000, 0,008627
361,000000, 0,008827
360,000000, 0,008664
359,000000, 0,009380
358,000000, 0,009988
357,000000, 0,010121
356,000000, 0,010366
355,000000, 0,010514
354,000000, 0,010269
353,000000, 0,010415
352,000000, 0,010204
351,000000, 0,011150
350,000000, 0,011408
349,000000, 0,011141
348,000000, 0,011561
347,000000, 0,012127
346,000000, 0,011925
345,000000, 0,012008
344,000000, 0,012437
343,000000, 0,012470
342,000000, 0,013402
341,000000, 0,013605
340,000000, 0,013466
339,000000, 0,013642
338,000000, 0,014126
337,000000, 0,014350
336,000000, 0,015052
335,000000, 0,015198
334,000000, 0,014739
333,000000, 0,015625
332,000000, 0,016186
331,000000, 0,016714
330,000000, 0,016469
329,000000, 0,017051
328,000000, 0,016986
327,000000, 0,018084
326,000000, 0,018112
325,000000, 0,017566
324,000000, 0,018288
323,000000, 0,018652
322,000000, 0,019323
321,000000, 0,019694
320,000000, 0,019477
319,000000, 0,021582
318,000000, 0,022295
317,000000, 0,022266
316,000000, 0,022787
315,000000, 0,023209
314,000000, 0,023562
313,000000, 0,023706
312,000000, 0,025107
311,000000, 0,025436
310,000000, 0,026123
309,000000, 0,026286
308,000000, 0,026549
307,000000, 0,027581
306,000000, 0,027846
305,000000, 0,028274
304,000000, 0,028835
303,000000, 0,029898
302,000000, 0,030080
301,000000, 0,029893
300,000000, 0,031440
299,000000, 0,031483
298,000000, 0,032333
297,000000, 0,033397
296,000000, 0,033314
295,000000, 0,034399
294,000000, 0,035334
293,000000, 0,036525
292,000000, 0,037336
291,000000, 0,038384
290,000000, 0,038465
289,000000, 0,039396
288,000000, 0,040939
287,000000, 0,041468
286,000000, 0,042419
285,000000, 0,043467
284,000000, 0,043713
283,000000, 0,044861
282,000000, 0,045551
281,000000, 0,045947
280,000000, 0,046752
279,000000, 0,047446
278,000000, 0,048432
277,000000, 0,049054
276,000000, 0,049750
275,000000, 0,050784
274,000000, 0,051149
273,000000, 0,052062
272,000000, 0,052261
271,000000, 0,052709
270,000000, 0,053063
269,000000, 0,053760
268,000000, 0,054267
267,000000, 0,054420
266,000000, 0,055180
265,000000, 0,055372
264,000000, 0,055582
263,000000, 0,056484
262,000000, 0,056518
261,000000, 0,057754
260,000000, 0,058116
259,000000, 0,059648
258,000000, 0,060740
257,000000, 0,061858
256,000000, 0,063128
255,000000, 0,064537
254,000000, 0,065744
253,000000, 0,067700
252,000000, 0,069329
251,000000, 0,070604
250,000000, 0,072405
