nm, A
550,000000, -0,002734
549,000000, -0,002916
548,000000, -0,002954
547,000000, -0,002716
546,000000, -0,002647
545,000000, -0,002502
544,000000, -0,002523
543,000000, -0,002746
542,000000, -0,002453
541,000000, -0,002559
540,000000, -0,002331
539,000000, -0,002436
538,000000, -0,002303
537,000000, -0,002297
536,000000, -0,002053
535,000000, -0,002048
534,000000, -0,002103
533,000000, -0,001998
532,000000, -0,001730
531,000000, -0,001666
530,000000, -0,001886
529,000000, -0,001419
528,000000, -0,001491
527,000000, -0,001298
526,000000, -0,001205
525,000000, -0,000983
524,000000, -0,000975
523,000000, -0,000956
522,000000, -0,000751
521,000000, -0,000590
520,000000, -0,000388
519,000000, -0,000216
518,000000, -0,000060
517,000000, 0,000016
516,000000, 0,000302
515,000000, 0,000358
514,000000, 0,000637
513,000000, 0,000807
512,000000, 0,000959
511,000000, 0,001480
510,000000, 0,001481
509,000000, 0,001634
508,000000, 0,001945
507,000000, 0,002182
506,000000, 0,002380
505,000000, 0,002732
504,000000, 0,002921
503,000000, 0,003523
502,000000, 0,003479
501,000000, 0,003906
500,000000, 0,004286
499,000000, 0,004504
498,000000, 0,004931
497,000000, 0,005207
496,000000, 0,005529
495,000000, 0,005851
494,000000, 0,006260
493,000000, 0,007035
492,000000, 0,007312
491,000000, 0,007600
490,000000, 0,007755
489,000000, 0,008723
488,000000, 0,008914
487,000000, 0,009530
486,000000, 0,009957
485,000000, 0,010204
484,000000, 0,010847
483,000000, 0,011263
482,000000, 0,011819
481,000000, 0,012500
480,000000, 0,012895
479,000000, 0,013477
478,000000, 0,013967
477,000000, 0,014571
476,000000, 0,015076
475,000000, 0,015509
474,000000, 0,016021
473,000000, 0,016754
472,000000, 0,017159
471,000000, 0,017767
470,000000, 0,018372
469,000000, 0,018769
468,000000, 0,019332
467,000000, 0,019829
466,000000, 0,020454
465,000000, 0,021024
464,000000, 0,021420
463,000000, 0,022041
462,000000, 0,022583
461,000000, 0,023252
460,000000, 0,023556
459,000000, 0,024098
458,000000, 0,024389
457,000000, 0,024928
456,000000, 0,025631
455,000000, 0,025940
454,000000, 0,026277
453,000000, 0,026888
452,000000, 0,027481
451,000000, 0,027941
450,000000, 0,028080
449,000000, 0,028543
448,000000, 0,028860
447,000000, 0,029140
446,000000, 0,029344
445,000000, 0,029622
444,000000, 0,030111
443,000000, 0,030419
442,000000, 0,030591
441,000000, 0,030587
440,000000, 0,030542
439,000000, 0,030830
438,000000, 0,031163
437,000000, 0,031006
436,000000, 0,031124
435,000000, 0,030945
434,000000, 0,031048
433,000000, 0,031055
432,000000, 0,030858
431,000000, 0,030807
430,000000, 0,030639
429,000000, 0,030538
428,000000, 0,030237
427,000000, 0,029805
426,000000, 0,029512
425,000000, 0,029187
424,000000, 0,028755
423,000000, 0,028500
422,000000, 0,028149
421,000000, 0,027991
420,000000, 0,027542
419,000000, 0,026842
418,000000, 0,026243
417,000000, 0,025492
416,000000, 0,025064
415,000000, 0,024686
414,000000, 0,024180
413,000000, 0,023462
412,000000, 0,022885
411,000000, 0,022264
410,000000, 0,021355
409,000000, 0,020494
408,000000, 0,019795
407,000000, 0,019150
406,000000, 0,018546
405,000000, 0,017886
404,000000, 0,017312
403,000000, 0,016505
402,000000, 0,015618
401,000000, 0,014977
400,000000, 0,014088
399,000000, 0,013286
398,000000, 0,012460
397,000000, 0,011863
396,000000, 0,011574
395,000000, 0,010804
394,000000, 0,009971
393,000000, 0,009261
392,000000, 0,008468
391,000000, 0,008123
390,000000, 0,007759
389,000000, 0,007107
388,000000, 0,006574
387,000000, 0,006134
386,000000, 0,005599
385,000000, 0,004794
384,000000, 0,004286
383,000000, 0,004037
382,000000, 0,003924
381,000000, 0,003490
380,000000, 0,002665
379,000000, 0,003087
378,000000, 0,002256
377,000000, 0,002372
376,000000, 0,002640
375,000000, 0,002033
374,000000, 0,002014
373,000000, 0,001935
372,000000, 0,001597
371,000000, 0,001508
370,000000, 0,002237
369,000000, 0,002652
368,000000, 0,003564
367,000000, 0,004805
366,000000, 0,006348
365,000000, 0,009113
364,000000, 0,012075
363,000000, 0,015393
362,000000, 0,021067
361,000000, 0,027498
360,000000, 0,035734
359,000000, 0,046240
358,000000, 0,058706
357,000000, 0,074317
356,000000, 0,092244
355,000000, 0,111761
354,000000, 0,133838
353,000000, 0,156968
352,000000, 0,180996
351,000000, 0,205292
350,000000, 0,228476
349,000000, 0,250860
348,000000, 0,271908
347,000000, 0,291586
346,000000, 0,310498
345,000000, 0,328456
344,000000, 0,345445
343,000000, 0,362275
342,000000, 0,380096
341,000000, 0,400370
340,000000, 0,421898
339,000000, 0,445433
338,000000, 0,470822
337,000000, 0,497948
336,000000, 0,525614
335,000000, 0,552980
334,000000, 0,579387
333,000000, 0,604477
332,000000, 0,626046
331,000000, 0,644187
330,000000, 0,661175
329,000000, 0,674337
328,000000, 0,686448
327,000000, 0,697489
326,000000, 0,707298
325,000000, 0,715132
324,000000, 0,725773
323,000000, 0,734446
322,000000, 0,741906
321,000000, 0,751552
320,000000, 0,757073
319,000000, 0,765030
318,000000, 0,770651
317,000000, 0,772839
316,000000, 0,773134
315,000000, 0,771790
314,000000, 0,768493
313,000000, 0,762737
312,000000, 0,757274
311,000000, 0,749405
310,000000, 0,742009
309,000000, 0,733755
308,000000, 0,724779
307,000000, 0,716225
306,000000, 0,706771
305,000000, 0,695171
304,000000, 0,683952
303,000000, 0,672421
302,000000, 0,659922
301,000000, 0,645804
300,000000, 0,631943
299,000000, 0,617318
298,000000, 0,601717
297,000000, 0,587868
296,000000, 0,572257
295,000000, 0,557277
294,000000, 0,541125
293,000000, 0,525963
292,000000, 0,511529
291,000000, 0,495618
290,000000, 0,480794
289,000000, 0,465550
288,000000, 0,450173
287,000000, 0,434597
286,000000, 0,420217
285,000000, 0,406595
284,000000, 0,392663
283,000000, 0,376978
282,000000, 0,363608
281,000000, 0,350153
280,000000, 0,337119
279,000000, 0,323666
278,000000, 0,311080
277,000000, 0,298669
276,000000, 0,287654
275,000000, 0,276616
274,000000, 0,264905
273,000000, 0,254908
272,000000, 0,244345
271,000000, 0,235286
270,000000, 0,225248
269,000000, 0,217029
268,000000, 0,208675
267,000000, 0,200700
266,000000, 0,192866
265,000000, 0,186551
264,000000, 0,180666
263,000000, 0,176792
262,000000, 0,173109
261,000000, 0,170325
260,000000, 0,169092
259,000000, 0,168197
258,000000, 0,169849
257,000000, 0,172012
256,000000, 0,174782
255,000000, 0,179953
254,000000, 0,185316
253,000000, 0,192784
252,000000, 0,200200
251,000000, 0,208074
250,000000, 0,216180
