nm, A
550,000000, 0,016458
549,000000, 0,016688
548,000000, 0,017118
547,000000, 0,017233
546,000000, 0,017484
545,000000, 0,017957
544,000000, 0,018319
543,000000, 0,018438
542,000000, 0,019016
541,000000, 0,019275
540,000000, 0,019792
539,000000, 0,020268
538,000000, 0,020764
537,000000, 0,021031
536,000000, 0,021937
535,000000, 0,022310
534,000000, 0,022802
533,000000, 0,023417
532,000000, 0,024166
531,000000, 0,024854
530,000000, 0,025340
529,000000, 0,026257
528,000000, 0,026998
527,000000, 0,027712
526,000000, 0,028671
525,000000, 0,029665
524,000000, 0,030698
523,000000, 0,031683
522,000000, 0,032891
521,000000, 0,033944
520,000000, 0,035320
519,000000, 0,036509
518,000000, 0,037769
517,000000, 0,039119
516,000000, 0,040724
515,000000, 0,042345
514,000000, 0,044101
513,000000, 0,045882
512,000000, 0,047807
511,000000, 0,049922
510,000000, 0,051905
509,000000, 0,054184
508,000000, 0,056509
507,000000, 0,058755
506,000000, 0,061233
505,000000, 0,064263
504,000000, 0,067188
503,000000, 0,070367
502,000000, 0,073358
501,000000, 0,076858
500,000000, 0,080526
499,000000, 0,084185
498,000000, 0,088325
497,000000, 0,092546
496,000000, 0,097081
495,000000, 0,101817
494,000000, 0,106794
493,000000, 0,111926
492,000000, 0,117394
491,000000, 0,123219
490,000000, 0,129260
489,000000, 0,135735
488,000000, 0,142431
487,000000, 0,149105
486,000000, 0,156305
485,000000, 0,163569
484,000000, 0,171420
483,000000, 0,179697
482,000000, 0,188422
481,000000, 0,197426
480,000000, 0,206161
479,000000, 0,215179
478,000000, 0,224496
477,000000, 0,234256
476,000000, 0,244216
475,000000, 0,254692
474,000000, 0,265360
473,000000, 0,276153
472,000000, 0,287437
471,000000, 0,298872
470,000000, 0,310569
469,000000, 0,322233
468,000000, 0,333975
467,000000, 0,345967
466,000000, 0,358209
465,000000, 0,370668
464,000000, 0,382976
463,000000, 0,395343
462,000000, 0,407877
461,000000, 0,420585
460,000000, 0,432846
459,000000, 0,445519
458,000000, 0,457760
457,000000, 0,470138
456,000000, 0,482534
455,000000, 0,494589
454,000000, 0,506608
453,000000, 0,518381
452,000000, 0,529974
451,000000, 0,541444
450,000000, 0,552656
449,000000, 0,563741
448,000000, 0,574338
447,000000, 0,584950
446,000000, 0,595220
445,000000, 0,605324
444,000000, 0,615314
443,000000, 0,625093
442,000000, 0,634626
441,000000, 0,643671
440,000000, 0,652826
439,000000, 0,661678
438,000000, 0,670697
437,000000, 0,679429
436,000000, 0,688419
435,000000, 0,696905
434,000000, 0,705378
433,000000, 0,713992
432,000000, 0,722465
431,000000, 0,730624
430,000000, 0,739348
429,000000, 0,747692
428,000000, 0,756142
427,000000, 0,764171
426,000000, 0,772329
425,000000, 0,780529
424,000000, 0,788197
423,000000, 0,795984
422,000000, 0,803392
421,000000, 0,810543
420,000000, 0,817219
419,000000, 0,823014
418,000000, 0,828385
417,000000, 0,833442
416,000000, 0,837761
415,000000, 0,841170
414,000000, 0,843775
413,000000, 0,845059
412,000000, 0,846442
411,000000, 0,847004
410,000000, 0,845974
409,000000, 0,844159
408,000000, 0,841996
407,000000, 0,838808
406,000000, 0,834715
405,000000, 0,829770
404,000000, 0,824857
403,000000, 0,819215
402,000000, 0,812762
401,000000, 0,806000
400,000000, 0,798668
399,000000, 0,790710
398,000000, 0,782246
397,000000, 0,773688
396,000000, 0,765306
395,000000, 0,756222
394,000000, 0,746618
393,000000, 0,737045
392,000000, 0,726844
391,000000, 0,716936
390,000000, 0,706614
389,000000, 0,696143
388,000000, 0,685723
387,000000, 0,675012
386,000000, 0,664321
385,000000, 0,652674
384,000000, 0,641319
383,000000, 0,630347
382,000000, 0,619199
381,000000, 0,607650
380,000000, 0,595712
379,000000, 0,584262
378,000000, 0,571951
377,000000, 0,559499
376,000000, 0,548131
375,000000, 0,536424
374,000000, 0,524700
373,000000, 0,513364
372,000000, 0,501384
371,000000, 0,488813
370,000000, 0,476777
369,000000, 0,464565
368,000000, 0,452888
367,000000, 0,441086
366,000000, 0,428427
365,000000, 0,416326
364,000000, 0,404148
363,000000, 0,391615
362,000000, 0,379660
361,000000, 0,367719
360,000000, 0,356503
359,000000, 0,344979
358,000000, 0,333439
357,000000, 0,322046
356,000000, 0,311038
355,000000, 0,299837
354,000000, 0,289747
353,000000, 0,280017
352,000000, 0,269416
351,000000, 0,259771
350,000000, 0,249931
349,000000, 0,240611
348,000000, 0,231549
347,000000, 0,222975
346,000000, 0,215474
345,000000, 0,208336
344,000000, 0,201098
343,000000, 0,193498
342,000000, 0,187484
341,000000, 0,182671
340,000000, 0,177558
339,000000, 0,172461
338,000000, 0,169247
337,000000, 0,167122
336,000000, 0,165418
335,000000, 0,164585
334,000000, 0,165453
333,000000, 0,167338
332,000000, 0,169288
331,000000, 0,172294
330,000000, 0,175728
329,000000, 0,176940
328,000000, 0,179030
327,000000, 0,180449
326,000000, 0,181665
325,000000, 0,180318
324,000000, 0,181173
323,000000, 0,182535
322,000000, 0,184528
321,000000, 0,187261
320,000000, 0,189138
319,000000, 0,193211
318,000000, 0,196335
317,000000, 0,198612
316,000000, 0,200355
315,000000, 0,200860
314,000000, 0,201357
313,000000, 0,201436
312,000000, 0,201545
311,000000, 0,201698
310,000000, 0,202185
309,000000, 0,203835
308,000000, 0,204920
307,000000, 0,205404
306,000000, 0,206379
305,000000, 0,206195
304,000000, 0,207584
303,000000, 0,208582
302,000000, 0,209393
301,000000, 0,210123
300,000000, 0,211862
299,000000, 0,212314
298,000000, 0,213557
297,000000, 0,215479
296,000000, 0,216553
295,000000, 0,219468
294,000000, 0,222233
293,000000, 0,224879
292,000000, 0,228096
291,000000, 0,231358
290,000000, 0,236276
289,000000, 0,242157
288,000000, 0,248693
287,000000, 0,254686
286,000000, 0,262035
285,000000, 0,270265
284,000000, 0,279741
283,000000, 0,287797
282,000000, 0,297876
281,000000, 0,307767
280,000000, 0,317858
279,000000, 0,327425
278,000000, 0,336832
277,000000, 0,346615
276,000000, 0,356232
275,000000, 0,365594
274,000000, 0,373680
273,000000, 0,382269
272,000000, 0,389760
271,000000, 0,397313
270,000000, 0,404841
269,000000, 0,410922
268,000000, 0,416403
267,000000, 0,421126
266,000000, 0,425722
265,000000, 0,430832
264,000000, 0,434503
263,000000, 0,438659
262,000000, 0,442287
261,000000, 0,443927
260,000000, 0,445801
259,000000, 0,447888
258,000000, 0,448248
257,000000, 0,447433
256,000000, 0,447261
255,000000, 0,446460
254,000000, 0,443981
253,000000, 0,442503
252,000000, 0,439049
251,000000, 0,435291
250,000000, 0,432336
