nm, A
550,000000, 0,035057
549,000000, 0,035341
548,000000, 0,036035
547,000000, 0,036638
546,000000, 0,037180
545,000000, 0,037815
544,000000, 0,038418
543,000000, 0,039029
542,000000, 0,039812
541,000000, 0,040435
540,000000, 0,041412
539,000000, 0,042135
538,000000, 0,043091
537,000000, 0,043789
536,000000, 0,044766
535,000000, 0,045518
534,000000, 0,046542
533,000000, 0,047596
532,000000, 0,048608
531,000000, 0,049609
530,000000, 0,050580
529,000000, 0,051937
528,000000, 0,052784
527,000000, 0,054353
526,000000, 0,055601
525,000000, 0,056978
524,000000, 0,058292
523,000000, 0,059694
522,000000, 0,061093
521,000000, 0,062764
520,000000, 0,064346
519,000000, 0,065981
518,000000, 0,067708
517,000000, 0,069417
516,000000, 0,071150
515,000000, 0,073178
514,000000, 0,075119
513,000000, 0,077275
512,000000, 0,079299
511,000000, 0,081606
510,000000, 0,083791
509,000000, 0,086162
508,000000, 0,088576
507,000000, 0,091002
506,000000, 0,093476
505,000000, 0,096077
504,000000, 0,099034
503,000000, 0,102094
502,000000, 0,104769
501,000000, 0,107762
500,000000, 0,110939
499,000000, 0,114145
498,000000, 0,117581
497,000000, 0,121116
496,000000, 0,124756
495,000000, 0,128378
494,000000, 0,132193
493,000000, 0,136227
492,000000, 0,140323
491,000000, 0,144354
490,000000, 0,148563
489,000000, 0,153404
488,000000, 0,157899
487,000000, 0,162380
486,000000, 0,167292
485,000000, 0,172046
484,000000, 0,176824
483,000000, 0,182235
482,000000, 0,187715
481,000000, 0,193421
480,000000, 0,198877
479,000000, 0,204451
478,000000, 0,210070
477,000000, 0,215999
476,000000, 0,221916
475,000000, 0,227822
474,000000, 0,233848
473,000000, 0,240120
472,000000, 0,246379
471,000000, 0,252617
470,000000, 0,259079
469,000000, 0,265433
468,000000, 0,271474
467,000000, 0,277734
466,000000, 0,284252
465,000000, 0,290709
464,000000, 0,296878
463,000000, 0,303148
462,000000, 0,309470
461,000000, 0,315769
460,000000, 0,321714
459,000000, 0,327505
458,000000, 0,333203
457,000000, 0,339086
456,000000, 0,345045
455,000000, 0,350342
454,000000, 0,355351
453,000000, 0,360862
452,000000, 0,365764
451,000000, 0,370557
450,000000, 0,375115
449,000000, 0,379614
448,000000, 0,383728
447,000000, 0,387680
446,000000, 0,391600
445,000000, 0,395149
444,000000, 0,398580
443,000000, 0,402173
442,000000, 0,405315
441,000000, 0,408132
440,000000, 0,410875
439,000000, 0,413446
438,000000, 0,416191
437,000000, 0,418582
436,000000, 0,420824
435,000000, 0,422729
434,000000, 0,424697
433,000000, 0,426838
432,000000, 0,428885
431,000000, 0,430854
430,000000, 0,432675
429,000000, 0,434461
428,000000, 0,436219
427,000000, 0,437669
426,000000, 0,439286
425,000000, 0,440763
424,000000, 0,442154
423,000000, 0,443613
422,000000, 0,444785
421,000000, 0,445975
420,000000, 0,446991
419,000000, 0,447485
418,000000, 0,448046
417,000000, 0,448428
416,000000, 0,448771
415,000000, 0,448695
414,000000, 0,448661
413,000000, 0,448180
412,000000, 0,447430
411,000000, 0,446697
410,000000, 0,445597
409,000000, 0,443999
408,000000, 0,442518
407,000000, 0,441189
406,000000, 0,439535
405,000000, 0,437627
404,000000, 0,435866
403,000000, 0,434279
402,000000, 0,432712
401,000000, 0,431324
400,000000, 0,429993
399,000000, 0,428960
398,000000, 0,427801
397,000000, 0,427104
396,000000, 0,427179
395,000000, 0,426905
394,000000, 0,427157
393,000000, 0,428521
392,000000, 0,429574
391,000000, 0,430799
390,000000, 0,433047
389,000000, 0,435629
388,000000, 0,437992
387,000000, 0,441252
386,000000, 0,445153
385,000000, 0,447713
384,000000, 0,451197
383,000000, 0,455451
382,000000, 0,459511
381,000000, 0,463130
380,000000, 0,466045
379,000000, 0,470962
378,000000, 0,474530
377,000000, 0,476637
376,000000, 0,478326
375,000000, 0,479778
374,000000, 0,481299
373,000000, 0,482028
372,000000, 0,482089
371,000000, 0,481420
370,000000, 0,480049
369,000000, 0,477478
368,000000, 0,474644
367,000000, 0,471691
366,000000, 0,467572
365,000000, 0,463858
364,000000, 0,458105
363,000000, 0,451336
362,000000, 0,445081
361,000000, 0,438129
360,000000, 0,431385
359,000000, 0,423376
358,000000, 0,414643
357,000000, 0,406603
356,000000, 0,398590
355,000000, 0,389722
354,000000, 0,380696
353,000000, 0,372397
352,000000, 0,362639
351,000000, 0,353179
350,000000, 0,343886
349,000000, 0,334213
348,000000, 0,325055
347,000000, 0,316062
346,000000, 0,307653
345,000000, 0,299182
344,000000, 0,291910
343,000000, 0,284262
342,000000, 0,277252
341,000000, 0,271178
340,000000, 0,264826
339,000000, 0,258966
338,000000, 0,254261
337,000000, 0,250387
336,000000, 0,246337
335,000000, 0,243059
334,000000, 0,241125
333,000000, 0,239392
332,000000, 0,238074
331,000000, 0,236986
330,000000, 0,236868
329,000000, 0,235406
328,000000, 0,233649
327,000000, 0,233118
326,000000, 0,232206
325,000000, 0,230459
324,000000, 0,229203
323,000000, 0,227438
322,000000, 0,226435
321,000000, 0,226150
320,000000, 0,225122
319,000000, 0,224309
318,000000, 0,223036
317,000000, 0,221427
316,000000, 0,220734
315,000000, 0,219052
314,000000, 0,217300
313,000000, 0,215949
312,000000, 0,214241
311,000000, 0,212750
310,000000, 0,211128
309,000000, 0,210492
308,000000, 0,210002
307,000000, 0,209024
306,000000, 0,208490
305,000000, 0,208334
304,000000, 0,207259
303,000000, 0,207264
302,000000, 0,206976
301,000000, 0,206133
300,000000, 0,206996
299,000000, 0,207281
298,000000, 0,208017
297,000000, 0,209142
296,000000, 0,210150
295,000000, 0,212358
294,000000, 0,214441
293,000000, 0,216914
292,000000, 0,218932
291,000000, 0,221868
290,000000, 0,226742
289,000000, 0,231162
288,000000, 0,235761
287,000000, 0,240952
286,000000, 0,247686
285,000000, 0,254756
284,000000, 0,263187
283,000000, 0,270651
282,000000, 0,280263
281,000000, 0,291786
280,000000, 0,302737
279,000000, 0,313523
278,000000, 0,325828
277,000000, 0,338626
276,000000, 0,352146
275,000000, 0,366579
274,000000, 0,379928
273,000000, 0,393858
272,000000, 0,408257
271,000000, 0,421059
270,000000, 0,434087
269,000000, 0,446039
268,000000, 0,456469
267,000000, 0,466922
266,000000, 0,475487
265,000000, 0,483046
264,000000, 0,489193
263,000000, 0,495635
262,000000, 0,499851
261,000000, 0,502695
260,000000, 0,505382
259,000000, 0,506803
258,000000, 0,507591
257,000000, 0,507646
256,000000, 0,506006
255,000000, 0,504349
254,000000, 0,502006
253,000000, 0,499291
252,000000, 0,495470
251,000000, 0,491663
250,000000, 0,487495
