nm, A
600,000000, -0,032127
599,000000, -0,032381
598,000000, -0,032175
597,000000, -0,032148
596,000000, -0,032258
595,000000, -0,031889
594,000000, -0,031966
593,000000, -0,031846
592,000000, -0,032001
591,000000, -0,031683
590,000000, -0,031768
589,000000, -0,031730
588,000000, -0,031614
587,000000, -0,031650
586,000000, -0,031702
585,000000, -0,031724
584,000000, -0,031937
583,000000, -0,031743
582,000000, -0,031528
581,000000, -0,031499
580,000000, -0,031649
579,000000, -0,031501
578,000000, -0,031641
577,000000, -0,031603
576,000000, -0,031540
575,000000, -0,031511
574,000000, -0,031548
573,000000, -0,031453
572,000000, -0,031535
571,000000, -0,031537
570,000000, -0,031572
569,000000, -0,031471
568,000000, -0,031198
567,000000, -0,031124
566,000000, -0,031280
565,000000, -0,031155
564,000000, -0,031171
563,000000, -0,031265
562,000000, -0,031857
561,000000, -0,031839
560,000000, -0,031781
559,000000, -0,031834
558,000000, -0,031665
557,000000, -0,031779
556,000000, -0,031655
555,000000, -0,031593
554,000000, -0,031716
553,000000, -0,031715
552,000000, -0,031683
551,000000, -0,031623
550,000000, -0,031648
549,000000, -0,031641
548,000000, -0,031542
547,000000, -0,031598
546,000000, -0,031694
545,000000, -0,031586
544,000000, -0,031642
543,000000, -0,031707
542,000000, -0,031594
541,000000, -0,031654
540,000000, -0,031689
539,000000, -0,031743
538,000000, -0,031700
537,000000, -0,031709
536,000000, -0,031625
535,000000, -0,031664
534,000000, -0,031729
533,000000, -0,031883
532,000000, -0,031718
531,000000, -0,031710
530,000000, -0,031734
529,000000, -0,031803
528,000000, -0,031826
527,000000, -0,031797
526,000000, -0,031894
525,000000, -0,031801
524,000000, -0,031906
523,000000, -0,031854
522,000000, -0,032023
521,000000, -0,032008
520,000000, -0,031989
519,000000, -0,031933
518,000000, -0,032046
517,000000, -0,032120
516,000000, -0,032217
515,000000, -0,032232
514,000000, -0,032301
513,000000, -0,032372
512,000000, -0,032346
511,000000, -0,032350
510,000000, -0,032413
509,000000, -0,032452
508,000000, -0,032493
507,000000, -0,032483
506,000000, -0,032352
505,000000, -0,032367
504,000000, -0,032283
503,000000, -0,032271
502,000000, -0,032138
501,000000, -0,031985
500,000000, -0,031907
499,000000, -0,031871
498,000000, -0,031995
497,000000, -0,032027
496,000000, -0,031914
495,000000, -0,031801
494,000000, -0,031606
493,000000, -0,031486
492,000000, -0,031482
491,000000, -0,031566
490,000000, -0,031496
489,000000, -0,031393
488,000000, -0,031412
487,000000, -0,031539
486,000000, -0,031496
485,000000, -0,031656
484,000000, -0,031610
483,000000, -0,031612
482,000000, -0,031694
481,000000, -0,031647
480,000000, -0,031685
479,000000, -0,031760
478,000000, -0,031768
477,000000, -0,031911
476,000000, -0,031928
475,000000, -0,031752
474,000000, -0,031703
473,000000, -0,031739
472,000000, -0,031658
471,000000, -0,031679
470,000000, -0,031690
469,000000, -0,031623
468,000000, -0,031489
467,000000, -0,031325
466,000000, -0,031307
465,000000, -0,031231
464,000000, -0,031090
463,000000, -0,030983
462,000000, -0,030889
461,000000, -0,030809
460,000000, -0,030652
459,000000, -0,030640
458,000000, -0,030645
457,000000, -0,030574
456,000000, -0,030586
455,000000, -0,030586
454,000000, -0,030668
453,000000, -0,030674
452,000000, -0,030563
451,000000, -0,030518
450,000000, -0,030699
449,000000, -0,030912
448,000000, -0,030988
447,000000, -0,030930
446,000000, -0,031027
445,000000, -0,031106
444,000000, -0,031100
443,000000, -0,031088
442,000000, -0,031059
441,000000, -0,030999
440,000000, -0,030978
439,000000, -0,031094
438,000000, -0,031143
437,000000, -0,031010
436,000000, -0,031014
435,000000, -0,031072
434,000000, -0,031050
433,000000, -0,031109
432,000000, -0,031131
431,000000, -0,031014
430,000000, -0,031100
429,000000, -0,031273
428,000000, -0,031169
427,000000, -0,031140
426,000000, -0,031236
425,000000, -0,031095
424,000000, -0,031150
423,000000, -0,031273
422,000000, -0,031082
421,000000, -0,030831
420,000000, -0,031005
419,000000, -0,031169
418,000000, -0,031101
417,000000, -0,031131
416,000000, -0,031218
415,000000, -0,031040
414,000000, -0,030917
413,000000, -0,030772
412,000000, -0,030804
411,000000, -0,030825
410,000000, -0,030737
409,000000, -0,030528
408,000000, -0,030454
407,000000, -0,030495
406,000000, -0,030430
405,000000, -0,030475
404,000000, -0,030599
403,000000, -0,030637
402,000000, -0,030423
401,000000, -0,030375
400,000000, -0,030229
399,000000, -0,030153
398,000000, -0,030037
397,000000, -0,029635
396,000000, -0,029474
395,000000, -0,029663
394,000000, -0,029608
393,000000, -0,029437
392,000000, -0,029498
391,000000, -0,029754
390,000000, -0,029616
389,000000, -0,029255
388,000000, -0,029124
387,000000, -0,029180
386,000000, -0,029173
385,000000, -0,029267
384,000000, -0,029013
383,000000, -0,029079
382,000000, -0,029026
381,000000, -0,028809
380,000000, -0,028916
379,000000, -0,029186
378,000000, -0,028718
377,000000, -0,028122
376,000000, -0,028105
375,000000, -0,028562
374,000000, -0,028172
373,000000, -0,028178
372,000000, -0,027619
371,000000, -0,027070
370,000000, -0,027353
369,000000, -0,027333
368,000000, -0,027251
367,000000, -0,027098
366,000000, -0,027414
365,000000, -0,027000
364,000000, -0,027153
363,000000, -0,026825
362,000000, -0,026215
361,000000, -0,026033
360,000000, -0,026069
359,000000, -0,025980
358,000000, -0,025636
357,000000, -0,025900
356,000000, -0,025198
355,000000, -0,025126
354,000000, -0,025116
353,000000, -0,025134
352,000000, -0,024220
351,000000, -0,024046
350,000000, -0,024225
349,000000, -0,024153
348,000000, -0,023793
347,000000, -0,023799
346,000000, -0,023480
345,000000, -0,022884
344,000000, -0,022955
343,000000, -0,022968
342,000000, -0,023116
341,000000, -0,022715
340,000000, -0,022334
339,000000, -0,021971
338,000000, -0,021598
337,000000, -0,021775
336,000000, -0,021097
335,000000, -0,020994
334,000000, -0,020656
333,000000, -0,020286
332,000000, -0,020561
331,000000, -0,019320
330,000000, -0,019731
329,000000, -0,019469
328,000000, -0,018609
327,000000, -0,018201
326,000000, -0,018229
325,000000, -0,017891
324,000000, -0,017725
323,000000, -0,017898
322,000000, -0,017242
321,000000, -0,017253
320,000000, -0,017101
319,000000, -0,014930
318,000000, -0,013629
317,000000, -0,013434
316,000000, -0,012766
315,000000, -0,011927
314,000000, -0,012035
313,000000, -0,011709
312,000000, -0,011105
311,000000, -0,010587
310,000000, -0,010313
309,000000, -0,009495
308,000000, -0,009566
307,000000, -0,008850
306,000000, -0,009185
305,000000, -0,007869
304,000000, -0,007709
303,000000, -0,006506
302,000000, -0,006132
301,000000, -0,006934
300,000000, -0,005573
299,000000, -0,005074
298,000000, -0,003883
297,000000, -0,003264
296,000000, -0,003305
295,000000, -0,002237
294,000000, -0,001244
293,000000, -0,001486
292,000000, -0,000422
291,000000, 0,001099
290,000000, 0,002111
289,000000, 0,002646
288,000000, 0,003072
287,000000, 0,003946
286,000000, 0,004957
285,000000, 0,005287
284,000000, 0,006564
283,000000, 0,006560
282,000000, 0,007713
281,000000, 0,008184
280,000000, 0,009133
279,000000, 0,009300
278,000000, 0,009704
277,000000, 0,010122
276,000000, 0,011470
275,000000, 0,011533
274,000000, 0,011833
273,000000, 0,012355
272,000000, 0,012367
271,000000, 0,013038
270,000000, 0,012915
269,000000, 0,013531
268,000000, 0,014267
267,000000, 0,013990
266,000000, 0,014271
265,000000, 0,014925
264,000000, 0,014895
263,000000, 0,014780
262,000000, 0,015378
261,000000, 0,015381
260,000000, 0,015999
259,000000, 0,016611
258,000000, 0,016806
257,000000, 0,016997
256,000000, 0,017160
255,000000, 0,017345
254,000000, 0,017897
253,000000, 0,018306
252,000000, 0,018849
251,000000, 0,019318
250,000000, 0,019943
