nm, A
650,000000, -0,002836
649,000000, -0,004609
648,000000, -0,002728
647,000000, -0,008527
646,000000, -0,002270
645,000000, -0,005172
644,000000, 0,001003
643,000000, 0,005951
642,000000, -0,001004
641,000000, 0,001987
640,000000, -0,000900
639,000000, -0,000467
638,000000, -0,009671
637,000000, -0,003175
636,000000, -0,006309
635,000000, -0,009789
634,000000, -0,006074
633,000000, -0,008808
632,000000, -0,008813
631,000000, -0,016286
630,000000, -0,014646
629,000000, 0,000398
628,000000, -0,005453
627,000000, -0,010806
626,000000, -0,004691
625,000000, -0,001688
624,000000, -0,003458
623,000000, -0,011042
622,000000, -0,010250
621,000000, -0,003604
620,000000, -0,008303
619,000000, -0,011433
618,000000, -0,007392
617,000000, -0,011450
616,000000, -0,013626
615,000000, -0,003582
614,000000, 0,001027
613,000000, -0,006691
612,000000, -0,010202
611,000000, -0,006207
610,000000, -0,010861
609,000000, -0,008841
608,000000, -0,012893
607,000000, -0,022908
606,000000, -0,019442
605,000000, -0,015518
604,000000, -0,008769
603,000000, -0,001760
602,000000, -0,008421
601,000000, 0,007402
600,000000, -0,010826
599,000000, -0,015377
598,000000, 0,001886
597,000000, -0,008109
596,000000, -0,006454
595,000000, -0,009171
594,000000, -0,008841
593,000000, -0,014739
592,000000, -0,015274
591,000000, -0,017964
590,000000, -0,004009
589,000000, -0,009316
588,000000, -0,009446
587,000000, -0,010720
586,000000, -0,001911
585,000000, -0,005754
584,000000, -0,002351
583,000000, -0,002413
582,000000, -0,007815
581,000000, -0,014118
580,000000, -0,008516
579,000000, -0,004257
578,000000, -0,005881
577,000000, -0,011317
576,000000, -0,006995
575,000000, -0,005949
574,000000, -0,010423
573,000000, -0,002134
572,000000, -0,007706
571,000000, -0,008942
570,000000, -0,011040
569,000000, -0,004709
568,000000, -0,004537
567,000000, -0,004970
566,000000, -0,006786
565,000000, -0,001479
564,000000, -0,000336
563,000000, -0,001408
562,000000, -0,000922
561,000000, -0,003213
560,000000, -0,001798
559,000000, 0,004686
558,000000, 0,006897
557,000000, -0,002055
556,000000, -0,003627
555,000000, -0,002372
554,000000, 0,003432
553,000000, 0,004565
552,000000, 0,001433
551,000000, 0,004355
550,000000, 0,000320
549,000000, 0,000304
548,000000, 0,001497
547,000000, 0,002159
546,000000, -0,000630
545,000000, -0,001525
544,000000, 0,003663
543,000000, 0,005845
542,000000, 0,002380
541,000000, 0,001734
540,000000, 0,003760
539,000000, 0,005294
538,000000, 0,003071
537,000000, 0,007463
536,000000, 0,012600
535,000000, 0,007611
534,000000, 0,003164
533,000000, 0,001470
532,000000, 0,001860
531,000000, 0,003932
530,000000, 0,005388
529,000000, 0,002795
528,000000, 0,004723
527,000000, 0,004773
526,000000, 0,002978
525,000000, 0,006743
524,000000, 0,008783
523,000000, 0,007425
522,000000, 0,005877
521,000000, 0,004402
520,000000, 0,005887
519,000000, 0,006439
518,000000, 0,008601
517,000000, 0,010587
516,000000, 0,009587
515,000000, 0,007907
514,000000, 0,007694
513,000000, 0,009663
512,000000, 0,010189
511,000000, 0,008929
510,000000, 0,010295
509,000000, 0,011251
508,000000, 0,010315
507,000000, 0,009496
506,000000, 0,012528
505,000000, 0,015013
504,000000, 0,014650
503,000000, 0,015423
502,000000, 0,019395
501,000000, 0,021406
500,000000, 0,019194
499,000000, 0,020660
498,000000, 0,024233
497,000000, 0,024652
496,000000, 0,021927
495,000000, 0,024631
494,000000, 0,028413
493,000000, 0,028333
492,000000, 0,026080
491,000000, 0,028562
490,000000, 0,036370
489,000000, 0,034376
488,000000, 0,034025
487,000000, 0,040736
486,000000, 0,039459
485,000000, 0,038093
484,000000, 0,043689
483,000000, 0,047847
482,000000, 0,048593
481,000000, 0,047205
480,000000, 0,047829
479,000000, 0,052944
478,000000, 0,056780
477,000000, 0,056486
476,000000, 0,057119
475,000000, 0,060640
474,000000, 0,062209
473,000000, 0,062691
472,000000, 0,069333
471,000000, 0,071925
470,000000, 0,071704
469,000000, 0,071533
468,000000, 0,075052
467,000000, 0,076758
466,000000, 0,077482
465,000000, 0,080503
464,000000, 0,082695
463,000000, 0,085246
462,000000, 0,085905
461,000000, 0,088574
460,000000, 0,092130
459,000000, 0,094830
458,000000, 0,095979
457,000000, 0,098485
456,000000, 0,101777
455,000000, 0,103863
454,000000, 0,104894
453,000000, 0,103776
452,000000, 0,105573
451,000000, 0,109311
450,000000, 0,113091
449,000000, 0,114591
448,000000, 0,114178
447,000000, 0,110976
446,000000, 0,116248
445,000000, 0,117636
444,000000, 0,112862
443,000000, 0,114859
442,000000, 0,120765
441,000000, 0,112146
440,000000, 0,111179
439,000000, 0,117203
438,000000, 0,123015
437,000000, 0,119152
436,000000, 0,120539
435,000000, 0,124041
434,000000, 0,124546
433,000000, 0,118681
432,000000, 0,121632
431,000000, 0,123155
430,000000, 0,125260
429,000000, 0,117501
428,000000, 0,118531
427,000000, 0,123161
426,000000, 0,120669
425,000000, 0,118399
424,000000, 0,121426
423,000000, 0,124281
422,000000, 0,126473
421,000000, 0,125183
420,000000, 0,130214
419,000000, 0,134917
418,000000, 0,132192
417,000000, 0,127119
416,000000, 0,134239
415,000000, 0,139046
414,000000, 0,140644
413,000000, 0,148187
412,000000, 0,151420
411,000000, 0,158860
410,000000, 0,156597
409,000000, 0,170682
408,000000, 0,185289
407,000000, 0,187740
406,000000, 0,197193
405,000000, 0,200778
404,000000, 0,214941
403,000000, 0,221805
402,000000, 0,232762
401,000000, 0,255218
400,000000, 0,266613
399,000000, 0,282345
398,000000, 0,300540
397,000000, 0,317632
396,000000, 0,330027
395,000000, 0,346739
394,000000, 0,370910
393,000000, 0,397688
392,000000, 0,412301
391,000000, 0,435044
390,000000, 0,471723
389,000000, 0,503497
388,000000, 0,523059
387,000000, 0,553030
386,000000, 0,587463
385,000000, 0,619476
384,000000, 0,643277
383,000000, 0,670383
382,000000, 0,709108
381,000000, 0,738656
380,000000, 0,754211
379,000000, 0,721489
378,000000, 0,731733
377,000000, 0,787923
376,000000, 0,781780
375,000000, 0,782810
374,000000, 0,748101
373,000000, 0,857116
372,000000, 0,857814
371,000000, 0,835452
370,000000, 0,846442
369,000000, 0,930479
368,000000, 0,890080
367,000000, 0,876815
366,000000, 0,897579
365,000000, 0,937331
364,000000, 0,943610
363,000000, 0,934314
362,000000, 0,962595
361,000000, 0,969515
360,000000, 0,966963
359,000000, 0,943329
358,000000, 0,933387
357,000000, 0,918890
356,000000, 0,908574
355,000000, 0,898293
354,000000, 0,897918
353,000000, 0,912182
352,000000, 0,862266
351,000000, 0,842577
350,000000, 0,867100
349,000000, 0,854759
348,000000, 0,810082
347,000000, 0,810590
346,000000, 0,847212
345,000000, 0,822121
344,000000, 0,768625
343,000000, 0,773595
342,000000, 0,811051
341,000000, 0,754861
340,000000, 0,715802
339,000000, 0,715719
338,000000, 0,732249
337,000000, 0,666846
336,000000, 0,657374
335,000000, 0,681333
334,000000, 0,661298
333,000000, 0,604526
332,000000, 0,593491
331,000000, 0,662079
330,000000, 0,597855
329,000000, 0,562537
328,000000, 0,561913
327,000000, 0,600725
326,000000, 0,611103
325,000000, 0,529424
324,000000, 0,609585
323,000000, 0,606678
322,000000, 0,579697
321,000000, 0,512884
320,000000, 0,601550
319,000000, 0,576003
318,000000, 0,572369
317,000000, 0,626259
316,000000, 0,578478
315,000000, 0,567295
314,000000, 0,696354
313,000000, 0,658743
312,000000, 0,601738
311,000000, 0,649935
310,000000, 0,686246
309,000000, 0,667002
308,000000, 0,649384
307,000000, 0,710521
306,000000, 0,748439
305,000000, 0,686442
304,000000, 0,712792
303,000000, 0,730933
302,000000, 0,743417
301,000000, 0,682291
300,000000, 0,728166
299,000000, 0,774029
298,000000, 0,767860
297,000000, 0,724008
296,000000, 0,759954
295,000000, 0,770661
294,000000, 0,734813
293,000000, 0,711795
292,000000, 0,749068
291,000000, 0,750219
290,000000, 0,699858
289,000000, 0,660212
288,000000, 0,696870
287,000000, 0,768748
286,000000, 0,673587
285,000000, 0,697002
284,000000, 0,729424
283,000000, 0,720298
282,000000, 0,740695
281,000000, 0,790994
280,000000, 0,802686
279,000000, 0,797418
278,000000, 0,827972
277,000000, 0,831837
276,000000, 0,819853
275,000000, 0,789220
274,000000, 0,810498
273,000000, 0,854485
272,000000, 0,893112
271,000000, 0,863526
270,000000, 0,844625
269,000000, 0,856827
268,000000, 0,842302
267,000000, 0,833877
266,000000, 0,860622
265,000000, 0,878771
264,000000, 0,875187
263,000000, 0,890587
262,000000, 0,928396
261,000000, 0,944590
260,000000, 0,953140
259,000000, 0,987721
258,000000, 1,035752
257,000000, 1,041503
256,000000, 1,056396
255,000000, 1,102612
254,000000, 1,126256
253,000000, 1,141817
252,000000, 1,156734
251,000000, 1,205891
250,000000, 1,225964
