nm, A
650,000000, 0,054749
649,000000, 0,031724
648,000000, 0,040440
647,000000, 0,040824
646,000000, 0,034427
645,000000, 0,032599
644,000000, 0,037750
643,000000, 0,038264
642,000000, 0,035898
641,000000, 0,033889
640,000000, 0,037984
639,000000, 0,035041
638,000000, 0,033420
637,000000, 0,038468
636,000000, 0,038759
635,000000, 0,034274
634,000000, 0,035067
633,000000, 0,038820
632,000000, 0,046648
631,000000, 0,037732
630,000000, 0,046850
629,000000, 0,042778
628,000000, 0,037498
627,000000, 0,033757
626,000000, 0,034438
625,000000, 0,039180
624,000000, 0,037243
623,000000, 0,036497
622,000000, 0,037012
621,000000, 0,041406
620,000000, 0,034621
619,000000, 0,037993
618,000000, 0,036980
617,000000, 0,039928
616,000000, 0,043324
615,000000, 0,038695
614,000000, 0,040265
613,000000, 0,033274
612,000000, 0,032474
611,000000, 0,036288
610,000000, 0,041325
609,000000, 0,039761
608,000000, 0,036347
607,000000, 0,038276
606,000000, 0,040840
605,000000, 0,035924
604,000000, 0,036406
603,000000, 0,040469
602,000000, 0,040495
601,000000, 0,035772
600,000000, 0,038308
599,000000, 0,038600
598,000000, 0,038691
597,000000, 0,035253
596,000000, 0,036351
595,000000, 0,037085
594,000000, 0,031992
593,000000, 0,031453
592,000000, 0,036709
591,000000, 0,038655
590,000000, 0,030025
589,000000, 0,035447
588,000000, 0,039197
587,000000, 0,037342
586,000000, 0,033982
585,000000, 0,037124
584,000000, 0,038279
583,000000, 0,035829
582,000000, 0,034534
581,000000, 0,039848
580,000000, 0,040372
579,000000, 0,035738
578,000000, 0,039079
577,000000, 0,039118
576,000000, 0,038924
575,000000, 0,036096
574,000000, 0,037362
573,000000, 0,040607
572,000000, 0,037244
571,000000, 0,034106
570,000000, 0,038252
569,000000, 0,037171
568,000000, 0,034074
567,000000, 0,033919
566,000000, 0,037967
565,000000, 0,036826
564,000000, 0,038190
563,000000, 0,037533
562,000000, 0,032448
561,000000, 0,035326
560,000000, 0,038314
559,000000, 0,036727
558,000000, 0,035842
557,000000, 0,039119
556,000000, 0,036862
555,000000, 0,034911
554,000000, 0,036068
553,000000, 0,036982
552,000000, 0,037291
551,000000, 0,036286
550,000000, 0,035501
549,000000, 0,036980
548,000000, 0,035731
547,000000, 0,036925
546,000000, 0,037479
545,000000, 0,038830
544,000000, 0,035328
543,000000, 0,037074
542,000000, 0,039568
541,000000, 0,037180
540,000000, 0,035530
539,000000, 0,035557
538,000000, 0,034933
537,000000, 0,034504
536,000000, 0,034377
535,000000, 0,037170
534,000000, 0,037276
533,000000, 0,034278
532,000000, 0,034596
531,000000, 0,038009
530,000000, 0,036396
529,000000, 0,035409
528,000000, 0,035492
527,000000, 0,038176
526,000000, 0,037821
525,000000, 0,034612
524,000000, 0,034747
523,000000, 0,035185
522,000000, 0,034448
521,000000, 0,036475
520,000000, 0,036548
519,000000, 0,034584
518,000000, 0,034613
517,000000, 0,034811
516,000000, 0,034655
515,000000, 0,034981
514,000000, 0,035906
513,000000, 0,036300
512,000000, 0,036174
511,000000, 0,036970
510,000000, 0,036421
509,000000, 0,036940
508,000000, 0,037114
507,000000, 0,036583
506,000000, 0,037363
505,000000, 0,036348
504,000000, 0,036497
503,000000, 0,036998
502,000000, 0,036537
501,000000, 0,036154
500,000000, 0,037262
499,000000, 0,036714
498,000000, 0,035331
497,000000, 0,038848
496,000000, 0,040301
495,000000, 0,036311
494,000000, 0,037717
493,000000, 0,042105
492,000000, 0,037552
491,000000, 0,035822
490,000000, 0,040872
489,000000, 0,039172
488,000000, 0,032915
487,000000, 0,033577
486,000000, 0,039056
485,000000, 0,037271
484,000000, 0,033240
483,000000, 0,037576
482,000000, 0,040330
481,000000, 0,036070
480,000000, 0,036331
479,000000, 0,038883
478,000000, 0,037671
477,000000, 0,036204
476,000000, 0,037800
475,000000, 0,040588
474,000000, 0,040399
473,000000, 0,039255
472,000000, 0,039947
471,000000, 0,039665
470,000000, 0,038159
469,000000, 0,040203
468,000000, 0,042964
467,000000, 0,041872
466,000000, 0,038830
465,000000, 0,040279
464,000000, 0,041737
463,000000, 0,041017
462,000000, 0,042557
461,000000, 0,044721
460,000000, 0,041386
459,000000, 0,037033
458,000000, 0,041192
457,000000, 0,043952
456,000000, 0,040300
455,000000, 0,038645
454,000000, 0,040281
453,000000, 0,039770
452,000000, 0,035945
451,000000, 0,037145
450,000000, 0,042388
449,000000, 0,038798
448,000000, 0,035510
447,000000, 0,039912
446,000000, 0,042000
445,000000, 0,037270
444,000000, 0,038336
443,000000, 0,041568
442,000000, 0,039923
441,000000, 0,039980
440,000000, 0,041517
439,000000, 0,041365
438,000000, 0,038870
437,000000, 0,036931
436,000000, 0,044284
435,000000, 0,044386
434,000000, 0,034618
433,000000, 0,038812
432,000000, 0,043658
431,000000, 0,038274
430,000000, 0,040155
429,000000, 0,042830
428,000000, 0,042343
427,000000, 0,039251
426,000000, 0,041835
425,000000, 0,046641
424,000000, 0,040046
423,000000, 0,035907
422,000000, 0,041675
421,000000, 0,043983
420,000000, 0,032207
419,000000, 0,035990
418,000000, 0,042694
417,000000, 0,038450
416,000000, 0,035154
415,000000, 0,038853
414,000000, 0,045536
413,000000, 0,035755
412,000000, 0,040019
411,000000, 0,044559
410,000000, 0,040358
409,000000, 0,037284
408,000000, 0,040694
407,000000, 0,042598
406,000000, 0,036585
405,000000, 0,036109
404,000000, 0,042493
403,000000, 0,039165
402,000000, 0,031360
401,000000, 0,041819
400,000000, 0,044995
399,000000, 0,040622
398,000000, 0,031361
397,000000, 0,042467
396,000000, 0,044588
395,000000, 0,036103
394,000000, 0,042747
393,000000, 0,050242
392,000000, 0,045425
391,000000, 0,039863
390,000000, 0,048385
389,000000, 0,051455
388,000000, 0,043587
387,000000, 0,036709
386,000000, 0,044563
385,000000, 0,043723
384,000000, 0,035476
383,000000, 0,038027
382,000000, 0,045094
381,000000, 0,042930
380,000000, 0,036183
379,000000, 0,044052
378,000000, 0,079252
377,000000, 0,071156
376,000000, 0,036157
375,000000, 0,047609
374,000000, 0,035270
373,000000, 0,048810
372,000000, 0,030236
371,000000, 0,065289
370,000000, 0,031789
369,000000, 0,030629
368,000000, 0,041062
367,000000, 0,036890
366,000000, 0,018872
365,000000, 0,035747
364,000000, 0,058710
363,000000, 0,065047
362,000000, 0,021971
361,000000, 0,054483
360,000000, 0,053616
359,000000, 0,047907
358,000000, 0,031323
357,000000, 0,068572
356,000000, 0,073274
355,000000, 0,036344
354,000000, 0,026653
353,000000, 0,066806
352,000000, 0,056101
351,000000, 0,032335
350,000000, 0,030713
349,000000, 0,070493
348,000000, 0,049237
347,000000, 0,027761
346,000000, 0,057878
345,000000, 0,068242
344,000000, 0,042515
343,000000, 0,038486
342,000000, 0,097329
341,000000, 0,087381
340,000000, 0,042033
339,000000, 0,036296
338,000000, 0,067859
337,000000, 0,067710
336,000000, 0,028157
335,000000, 0,077440
334,000000, 0,067408
333,000000, 0,063726
332,000000, 0,068564
331,000000, 0,076952
330,000000, 0,072579
329,000000, 0,040447
328,000000, -0,010938
327,000000, 0,053038
326,000000, 0,094521
325,000000, 0,093614
324,000000, 0,098246
323,000000, 0,106007
322,000000, 0,110834
321,000000, 0,107566
320,000000, 0,181036
319,000000, 0,155888
318,000000, 0,180659
317,000000, 0,181278
316,000000, 0,223787
315,000000, 0,232203
314,000000, 0,244429
313,000000, 0,256971
312,000000, 0,292568
311,000000, 0,310261
310,000000, 0,334280
309,000000, 0,353487
308,000000, 0,366074
307,000000, 0,365101
306,000000, 0,388284
305,000000, 0,410398
304,000000, 0,431778
303,000000, 0,431798
302,000000, 0,420059
301,000000, 0,473992
300,000000, 0,481678
299,000000, 0,459069
298,000000, 0,477629
297,000000, 0,521775
296,000000, 0,511740
295,000000, 0,505923
294,000000, 0,514473
293,000000, 0,536732
292,000000, 0,503177
291,000000, 0,513503
290,000000, 0,531293
289,000000, 0,532635
288,000000, 0,523545
287,000000, 0,545652
286,000000, 0,575352
285,000000, 0,554052
284,000000, 0,543658
283,000000, 0,577958
282,000000, 0,604292
281,000000, 0,615047
280,000000, 0,665152
279,000000, 0,714931
278,000000, 0,711429
277,000000, 0,695156
276,000000, 0,689886
275,000000, 0,699086
274,000000, 0,689453
273,000000, 0,707234
272,000000, 0,737969
271,000000, 0,736214
270,000000, 0,713165
269,000000, 0,694077
268,000000, 0,692796
267,000000, 0,683807
266,000000, 0,688090
265,000000, 0,674264
264,000000, 0,677245
263,000000, 0,671576
262,000000, 0,656161
261,000000, 0,626753
260,000000, 0,622526
259,000000, 0,638098
258,000000, 0,635812
257,000000, 0,613168
256,000000, 0,602681
255,000000, 0,619445
254,000000, 0,623779
253,000000, 0,611736
252,000000, 0,616355
251,000000, 0,640702
250,000000, 0,624168
