nm, A
800,000000, -0,036474
799,000000, -0,035444
798,000000, -0,034971
797,000000, -0,034775
796,000000, -0,034315
795,000000, -0,033676
794,000000, -0,034157
793,000000, -0,034154
792,000000, -0,033273
791,000000, -0,033282
790,000000, -0,033881
789,000000, -0,033679
788,000000, -0,033034
787,000000, -0,033277
786,000000, -0,033109
785,000000, -0,032229
784,000000, -0,031974
783,000000, -0,031591
782,000000, -0,031057
781,000000, -0,031320
780,000000, -0,030960
779,000000, -0,031145
778,000000, -0,030090
777,000000, -0,030411
776,000000, -0,030334
775,000000, -0,029775
774,000000, -0,029126
773,000000, -0,028736
772,000000, -0,028858
771,000000, -0,028016
770,000000, -0,027489
769,000000, -0,027653
768,000000, -0,027170
767,000000, -0,027031
766,000000, -0,026757
765,000000, -0,026546
764,000000, -0,026297
763,000000, -0,025327
762,000000, -0,025530
761,000000, -0,024373
760,000000, -0,024926
759,000000, -0,024725
758,000000, -0,024000
757,000000, -0,023913
756,000000, -0,023777
755,000000, -0,022777
754,000000, -0,022916
753,000000, -0,022595
752,000000, -0,023109
751,000000, -0,022486
750,000000, -0,021761
749,000000, -0,021756
748,000000, -0,021090
747,000000, -0,020793
746,000000, -0,020971
745,000000, -0,020397
744,000000, -0,020010
743,000000, -0,019393
742,000000, -0,018901
741,000000, -0,018697
740,000000, -0,018381
739,000000, -0,018403
738,000000, -0,017858
737,000000, -0,017210
736,000000, -0,016959
735,000000, -0,015947
734,000000, -0,015141
733,000000, -0,014711
732,000000, -0,013935
731,000000, -0,013843
730,000000, -0,013350
729,000000, -0,013286
728,000000, -0,012719
727,000000, -0,012727
726,000000, -0,013244
725,000000, -0,013485
724,000000, -0,013486
723,000000, -0,013550
722,000000, -0,013360
721,000000, -0,013126
720,000000, -0,013190
719,000000, -0,013125
718,000000, -0,013083
717,000000, -0,012870
716,000000, -0,013027
715,000000, -0,012945
714,000000, -0,012746
713,000000, -0,012489
712,000000, -0,011769
711,000000, -0,011400
710,000000, -0,011067
709,000000, -0,011060
708,000000, -0,011249
707,000000, -0,010854
706,000000, -0,010778
705,000000, -0,010753
704,000000, -0,010329
703,000000, -0,010198
702,000000, -0,010021
701,000000, -0,009848
700,000000, -0,009582
699,000000, -0,009339
698,000000, -0,009283
697,000000, -0,008978
696,000000, -0,008767
695,000000, -0,008657
694,000000, -0,008472
693,000000, -0,008179
692,000000, -0,008042
691,000000, -0,007849
690,000000, -0,007454
689,000000, -0,007428
688,000000, -0,007254
687,000000, -0,007048
686,000000, -0,006839
685,000000, -0,006713
684,000000, -0,006454
683,000000, -0,006375
682,000000, -0,006160
681,000000, -0,005897
680,000000, -0,005784
679,000000, -0,005680
678,000000, -0,005589
677,000000, -0,005477
676,000000, -0,005309
675,000000, -0,005328
674,000000, -0,005308
673,000000, -0,005070
672,000000, -0,004913
671,000000, -0,004800
670,000000, -0,004847
669,000000, -0,004584
668,000000, -0,004302
667,000000, -0,004312
666,000000, -0,004271
665,000000, -0,004139
664,000000, -0,003883
663,000000, -0,003805
662,000000, -0,003798
661,000000, -0,003635
660,000000, -0,003568
659,000000, -0,003405
658,000000, -0,003302
657,000000, -0,003336
656,000000, -0,003198
655,000000, -0,003251
654,000000, -0,003013
653,000000, -0,002594
652,000000, -0,002674
651,000000, -0,002703
650,000000, -0,002557
649,000000, -0,002396
648,000000, -0,002224
647,000000, -0,002146
646,000000, -0,002115
645,000000, -0,001961
644,000000, -0,001730
643,000000, -0,001661
642,000000, -0,001704
641,000000, -0,001565
640,000000, -0,001402
639,000000, -0,001481
638,000000, -0,001328
637,000000, -0,001105
636,000000, -0,001222
635,000000, -0,001245
634,000000, -0,000892
633,000000, -0,000678
632,000000, -0,000517
631,000000, -0,000578
630,000000, -0,000519
629,000000, -0,000211
628,000000, -0,000091
627,000000, 0,000017
626,000000, 0,000077
625,000000, 0,000304
624,000000, 0,000350
623,000000, 0,000445
622,000000, 0,000582
621,000000, 0,000658
620,000000, 0,000794
619,000000, 0,000788
618,000000, 0,000753
617,000000, 0,000815
616,000000, 0,000810
615,000000, 0,000881
614,000000, 0,000901
613,000000, 0,000847
612,000000, 0,000869
611,000000, 0,000982
610,000000, 0,001148
609,000000, 0,001256
608,000000, 0,001149
607,000000, 0,001263
606,000000, 0,001361
605,000000, 0,001341
604,000000, 0,001373
603,000000, 0,001457
602,000000, 0,001512
601,000000, 0,001612
600,000000, 0,001827
599,000000, 0,001772
598,000000, 0,001812
597,000000, 0,001738
596,000000, 0,001793
595,000000, 0,001958
594,000000, 0,001886
593,000000, 0,001956
592,000000, 0,002030
591,000000, 0,002128
590,000000, 0,002186
589,000000, 0,002267
588,000000, 0,002180
587,000000, 0,002124
586,000000, 0,002399
585,000000, 0,002346
584,000000, 0,002318
583,000000, 0,002419
582,000000, 0,002384
581,000000, 0,002365
580,000000, 0,002494
579,000000, 0,002542
578,000000, 0,002624
577,000000, 0,002636
576,000000, 0,002580
575,000000, 0,002594
574,000000, 0,002663
573,000000, 0,002832
572,000000, 0,002765
571,000000, 0,002804
570,000000, 0,002750
569,000000, 0,002867
568,000000, 0,002931
567,000000, 0,002893
566,000000, 0,002979
565,000000, 0,003055
564,000000, 0,003113
563,000000, 0,003089
562,000000, 0,002783
561,000000, 0,002685
560,000000, 0,002637
559,000000, 0,002585
558,000000, 0,002860
557,000000, 0,002851
556,000000, 0,002830
555,000000, 0,002895
554,000000, 0,002809
553,000000, 0,002798
552,000000, 0,002812
551,000000, 0,002837
550,000000, 0,002893
549,000000, 0,003097
548,000000, 0,003146
547,000000, 0,003056
546,000000, 0,003092
545,000000, 0,003092
544,000000, 0,003192
543,000000, 0,003084
542,000000, 0,003034
541,000000, 0,003185
540,000000, 0,003215
539,000000, 0,003157
538,000000, 0,003312
537,000000, 0,003259
536,000000, 0,003199
535,000000, 0,003301
534,000000, 0,003199
533,000000, 0,003127
532,000000, 0,003242
531,000000, 0,003040
530,000000, 0,003199
529,000000, 0,003230
528,000000, 0,003280
527,000000, 0,003390
526,000000, 0,003174
525,000000, 0,003235
524,000000, 0,003338
523,000000, 0,003333
522,000000, 0,003224
521,000000, 0,003168
520,000000, 0,003315
519,000000, 0,003206
518,000000, 0,003245
517,000000, 0,003184
516,000000, 0,003060
515,000000, 0,003101
514,000000, 0,003106
513,000000, 0,003009
512,000000, 0,003031
511,000000, 0,002961
510,000000, 0,003027
509,000000, 0,003010
508,000000, 0,003067
507,000000, 0,003078
506,000000, 0,003094
505,000000, 0,003163
504,000000, 0,003209
503,000000, 0,003195
502,000000, 0,003460
501,000000, 0,003615
500,000000, 0,003679
499,000000, 0,003673
498,000000, 0,003772
497,000000, 0,003813
496,000000, 0,004181
495,000000, 0,004224
494,000000, 0,004167
493,000000, 0,004280
492,000000, 0,004355
491,000000, 0,004305
490,000000, 0,004148
489,000000, 0,004503
488,000000, 0,004468
487,000000, 0,004707
486,000000, 0,004670
485,000000, 0,004732
484,000000, 0,004469
483,000000, 0,004504
482,000000, 0,004396
481,000000, 0,004288
480,000000, 0,004375
479,000000, 0,004287
478,000000, 0,004561
477,000000, 0,004300
476,000000, 0,004440
475,000000, 0,004668
474,000000, 0,004496
473,000000, 0,004492
472,000000, 0,004557
471,000000, 0,004604
470,000000, 0,004751
469,000000, 0,004820
468,000000, 0,004837
467,000000, 0,004953
466,000000, 0,005107
465,000000, 0,005211
464,000000, 0,005372
463,000000, 0,005465
462,000000, 0,005643
461,000000, 0,005709
460,000000, 0,005816
459,000000, 0,005958
458,000000, 0,006038
457,000000, 0,005902
456,000000, 0,005793
455,000000, 0,005850
454,000000, 0,005899
453,000000, 0,005810
452,000000, 0,005848
451,000000, 0,005859
450,000000, 0,005861
449,000000, 0,006079
448,000000, 0,006164
447,000000, 0,005843
446,000000, 0,005866
445,000000, 0,006059
444,000000, 0,006049
443,000000, 0,005989
442,000000, 0,005898
441,000000, 0,005914
440,000000, 0,006068
439,000000, 0,006250
438,000000, 0,006266
437,000000, 0,006129
436,000000, 0,006065
435,000000, 0,006007
434,000000, 0,006113
433,000000, 0,006168
432,000000, 0,006363
431,000000, 0,006530
430,000000, 0,006361
429,000000, 0,006467
428,000000, 0,006439
427,000000, 0,006380
426,000000, 0,006596
425,000000, 0,006471
424,000000, 0,006287
423,000000, 0,006616
422,000000, 0,006552
421,000000, 0,006646
420,000000, 0,006605
419,000000, 0,006805
418,000000, 0,007046
417,000000, 0,006975
416,000000, 0,006871
415,000000, 0,006893
414,000000, 0,007008
413,000000, 0,007144
412,000000, 0,007291
411,000000, 0,007369
410,000000, 0,007512
409,000000, 0,007573
408,000000, 0,007600
407,000000, 0,007712
406,000000, 0,007617
405,000000, 0,007557
404,000000, 0,007647
403,000000, 0,007950
402,000000, 0,007968
401,000000, 0,008209
400,000000, 0,008246
399,000000, 0,008291
398,000000, 0,008664
397,000000, 0,008744
396,000000, 0,008675
395,000000, 0,008876
394,000000, 0,009226
393,000000, 0,009130
392,000000, 0,009148
391,000000, 0,009241
390,000000, 0,009380
389,000000, 0,009476
388,000000, 0,009549
387,000000, 0,009686
386,000000, 0,009667
385,000000, 0,009627
384,000000, 0,009876
383,000000, 0,009945
382,000000, 0,009981
381,000000, 0,010195
380,000000, 0,010254
379,000000, 0,010475
378,000000, 0,010613
377,000000, 0,010813
376,000000, 0,011150
375,000000, 0,011240
374,000000, 0,011353
373,000000, 0,011562
372,000000, 0,011629
371,000000, 0,011821
370,000000, 0,011692
369,000000, 0,012056
368,000000, 0,012441
367,000000, 0,012390
366,000000, 0,012306
365,000000, 0,012820
364,000000, 0,012906
363,000000, 0,012703
362,000000, 0,012831
361,000000, 0,013213
360,000000, 0,013349
359,000000, 0,013092
358,000000, 0,013367
357,000000, 0,013627
356,000000, 0,014239
355,000000, 0,014378
354,000000, 0,014537
353,000000, 0,014720
352,000000, 0,014853
351,000000, 0,014929
350,000000, 0,015279
349,000000, 0,015603
348,000000, 0,015755
347,000000, 0,015636
346,000000, 0,016219
345,000000, 0,016963
344,000000, 0,017063
343,000000, 0,016737
342,000000, 0,017261
341,000000, 0,017948
340,000000, 0,017851
339,000000, 0,018194
338,000000, 0,018285
337,000000, 0,018611
336,000000, 0,019436
335,000000, 0,019871
334,000000, 0,019850
333,000000, 0,019990
332,000000, 0,020339
331,000000, 0,020789
330,000000, 0,021080
329,000000, 0,021289
328,000000, 0,022337
327,000000, 0,022914
326,000000, 0,022478
325,000000, 0,022704
324,000000, 0,022904
323,000000, 0,023091
322,000000, 0,023682
321,000000, 0,024228
320,000000, 0,025022
319,000000, 0,026527
318,000000, 0,028171
317,000000, 0,028836
316,000000, 0,029115
315,000000, 0,029701
314,000000, 0,030068
313,000000, 0,030170
312,000000, 0,030916
311,000000, 0,031616
310,000000, 0,031736
309,000000, 0,032193
308,000000, 0,032918
307,000000, 0,033396
306,000000, 0,033860
305,000000, 0,034416
304,000000, 0,035199
303,000000, 0,035906
302,000000, 0,036476
301,000000, 0,037063
300,000000, 0,037712
299,000000, 0,038310
298,000000, 0,039227
297,000000, 0,040151
296,000000, 0,040709
295,000000, 0,041624
294,000000, 0,042760
293,000000, 0,043903
292,000000, 0,045045
291,000000, 0,045759
290,000000, 0,046756
289,000000, 0,048020
288,000000, 0,048855
287,000000, 0,049659
286,000000, 0,050419
285,000000, 0,051641
284,000000, 0,052710
283,000000, 0,053776
282,000000, 0,054794
281,000000, 0,055511
280,000000, 0,056040
279,000000, 0,057368
278,000000, 0,057897
277,000000, 0,058662
276,000000, 0,059651
275,000000, 0,060447
274,000000, 0,061069
273,000000, 0,062101
272,000000, 0,062964
271,000000, 0,063651
270,000000, 0,064104
269,000000, 0,064725
268,000000, 0,065850
267,000000, 0,066007
266,000000, 0,066445
265,000000, 0,067174
264,000000, 0,067518
263,000000, 0,068370
262,000000, 0,068965
261,000000, 0,069778
260,000000, 0,070518
259,000000, 0,071860
258,000000, 0,073011
257,000000, 0,074248
256,000000, 0,076455
255,000000, 0,077794
254,000000, 0,079409
253,000000, 0,081238
252,000000, 0,083212
251,000000, 0,084790
250,000000, 0,086368
