nm, A
800,000000, -0,067616
799,000000, -0,066897
798,000000, -0,066539
797,000000, -0,066171
796,000000, -0,066352
795,000000, -0,065834
794,000000, -0,066036
793,000000, -0,065433
792,000000, -0,064966
791,000000, -0,064393
790,000000, -0,064104
789,000000, -0,064338
788,000000, -0,063730
787,000000, -0,063539
786,000000, -0,063263
785,000000, -0,063049
784,000000, -0,062401
783,000000, -0,062852
782,000000, -0,062871
781,000000, -0,062852
780,000000, -0,061337
779,000000, -0,060461
778,000000, -0,060693
777,000000, -0,059900
776,000000, -0,060361
775,000000, -0,059410
774,000000, -0,059516
773,000000, -0,059520
772,000000, -0,058851
771,000000, -0,058873
770,000000, -0,058829
769,000000, -0,058373
768,000000, -0,058230
767,000000, -0,057625
766,000000, -0,057140
765,000000, -0,056814
764,000000, -0,056906
763,000000, -0,056791
762,000000, -0,055910
761,000000, -0,055562
760,000000, -0,055422
759,000000, -0,055041
758,000000, -0,055262
757,000000, -0,054764
756,000000, -0,054479
755,000000, -0,053787
754,000000, -0,053807
753,000000, -0,053757
752,000000, -0,053167
751,000000, -0,053008
750,000000, -0,052302
749,000000, -0,052845
748,000000, -0,052164
747,000000, -0,051709
746,000000, -0,051631
745,000000, -0,051523
744,000000, -0,051152
743,000000, -0,050749
742,000000, -0,050468
741,000000, -0,050258
740,000000, -0,050034
739,000000, -0,049485
738,000000, -0,049495
737,000000, -0,049335
736,000000, -0,048957
735,000000, -0,048459
734,000000, -0,048346
733,000000, -0,048086
732,000000, -0,047571
731,000000, -0,047606
730,000000, -0,047212
729,000000, -0,046974
728,000000, -0,046704
727,000000, -0,046282
726,000000, -0,046617
725,000000, -0,046061
724,000000, -0,046021
723,000000, -0,045597
722,000000, -0,045669
721,000000, -0,045286
720,000000, -0,044622
719,000000, -0,044768
718,000000, -0,044359
717,000000, -0,044144
716,000000, -0,044319
715,000000, -0,043967
714,000000, -0,043988
713,000000, -0,043693
712,000000, -0,043558
711,000000, -0,042982
710,000000, -0,042830
709,000000, -0,042633
708,000000, -0,042618
707,000000, -0,042107
706,000000, -0,042057
705,000000, -0,041952
704,000000, -0,041747
703,000000, -0,041350
702,000000, -0,041396
701,000000, -0,041207
700,000000, -0,041026
699,000000, -0,040716
698,000000, -0,040465
697,000000, -0,040042
696,000000, -0,039956
695,000000, -0,039743
694,000000, -0,039442
693,000000, -0,039478
692,000000, -0,039426
691,000000, -0,039213
690,000000, -0,038803
689,000000, -0,038585
688,000000, -0,038431
687,000000, -0,038283
686,000000, -0,037983
685,000000, -0,037983
684,000000, -0,038045
683,000000, -0,037750
682,000000, -0,037533
681,000000, -0,037378
680,000000, -0,037233
679,000000, -0,036925
678,000000, -0,036963
677,000000, -0,036932
676,000000, -0,036671
675,000000, -0,036510
674,000000, -0,036357
673,000000, -0,036226
672,000000, -0,036015
671,000000, -0,035813
670,000000, -0,035671
669,000000, -0,035583
668,000000, -0,035534
667,000000, -0,035181
666,000000, -0,034946
665,000000, -0,034910
664,000000, -0,034966
663,000000, -0,034780
662,000000, -0,034552
661,000000, -0,034477
660,000000, -0,034371
659,000000, -0,034284
658,000000, -0,034330
657,000000, -0,034323
656,000000, -0,034088
655,000000, -0,033920
654,000000, -0,033757
653,000000, -0,033595
652,000000, -0,033552
651,000000, -0,033417
650,000000, -0,033242
649,000000, -0,033093
648,000000, -0,033112
647,000000, -0,033028
646,000000, -0,033097
645,000000, -0,032873
644,000000, -0,032591
643,000000, -0,032507
642,000000, -0,032550
641,000000, -0,032527
640,000000, -0,032374
639,000000, -0,032235
638,000000, -0,031980
637,000000, -0,031900
636,000000, -0,031918
635,000000, -0,031902
634,000000, -0,031865
633,000000, -0,031728
632,000000, -0,031721
631,000000, -0,031659
630,000000, -0,031387
629,000000, -0,031337
628,000000, -0,031355
627,000000, -0,031373
626,000000, -0,031345
625,000000, -0,031157
624,000000, -0,031029
623,000000, -0,031003
622,000000, -0,030879
621,000000, -0,030897
620,000000, -0,030891
619,000000, -0,030730
618,000000, -0,030598
617,000000, -0,030556
616,000000, -0,030562
615,000000, -0,030528
614,000000, -0,030370
613,000000, -0,030241
612,000000, -0,030210
611,000000, -0,030099
610,000000, -0,029968
609,000000, -0,029906
608,000000, -0,030104
607,000000, -0,030015
606,000000, -0,029934
605,000000, -0,029932
604,000000, -0,029860
603,000000, -0,029870
602,000000, -0,029884
601,000000, -0,029847
600,000000, -0,029649
599,000000, -0,029495
598,000000, -0,029522
597,000000, -0,029598
596,000000, -0,029566
595,000000, -0,029596
594,000000, -0,029428
593,000000, -0,029380
592,000000, -0,029444
591,000000, -0,029407
590,000000, -0,029386
589,000000, -0,029342
588,000000, -0,029400
587,000000, -0,029300
586,000000, -0,029165
585,000000, -0,029334
584,000000, -0,029203
583,000000, -0,029093
582,000000, -0,029199
581,000000, -0,029094
580,000000, -0,029035
579,000000, -0,029139
578,000000, -0,028956
577,000000, -0,028940
576,000000, -0,029033
575,000000, -0,029092
574,000000, -0,029079
573,000000, -0,028976
572,000000, -0,028877
571,000000, -0,028831
570,000000, -0,028840
569,000000, -0,028998
568,000000, -0,028803
567,000000, -0,028851
566,000000, -0,028829
565,000000, -0,028794
564,000000, -0,028781
563,000000, -0,028701
562,000000, -0,029263
561,000000, -0,029262
560,000000, -0,029277
559,000000, -0,029226
558,000000, -0,029068
557,000000, -0,028897
556,000000, -0,028926
555,000000, -0,028881
554,000000, -0,029022
553,000000, -0,029104
552,000000, -0,029067
551,000000, -0,029070
550,000000, -0,028908
549,000000, -0,029057
548,000000, -0,029061
547,000000, -0,029181
546,000000, -0,029124
545,000000, -0,029006
544,000000, -0,029063
543,000000, -0,029037
542,000000, -0,028948
541,000000, -0,029088
540,000000, -0,029189
539,000000, -0,029212
538,000000, -0,029087
537,000000, -0,029114
536,000000, -0,029262
535,000000, -0,029099
534,000000, -0,029119
533,000000, -0,029247
532,000000, -0,029118
531,000000, -0,029099
530,000000, -0,028975
529,000000, -0,029192
528,000000, -0,029235
527,000000, -0,029348
526,000000, -0,029306
525,000000, -0,029397
524,000000, -0,029297
523,000000, -0,029488
522,000000, -0,029347
521,000000, -0,029502
520,000000, -0,029381
519,000000, -0,029550
518,000000, -0,029460
517,000000, -0,029416
516,000000, -0,029518
515,000000, -0,029487
514,000000, -0,029392
513,000000, -0,029571
512,000000, -0,029517
511,000000, -0,029611
510,000000, -0,029580
509,000000, -0,029491
508,000000, -0,029445
507,000000, -0,029530
506,000000, -0,029447
505,000000, -0,029352
504,000000, -0,029366
503,000000, -0,029176
502,000000, -0,029211
501,000000, -0,029123
500,000000, -0,029115
499,000000, -0,028985
498,000000, -0,028998
497,000000, -0,028731
496,000000, -0,028886
495,000000, -0,028911
494,000000, -0,028605
493,000000, -0,028647
492,000000, -0,028633
491,000000, -0,028612
490,000000, -0,028457
489,000000, -0,028641
488,000000, -0,028603
487,000000, -0,028657
486,000000, -0,028721
485,000000, -0,028884
484,000000, -0,028812
483,000000, -0,028940
482,000000, -0,029078
481,000000, -0,028966
480,000000, -0,029127
479,000000, -0,029098
478,000000, -0,029124
477,000000, -0,029051
476,000000, -0,029087
475,000000, -0,029010
474,000000, -0,029016
473,000000, -0,028987
472,000000, -0,029000
471,000000, -0,028970
470,000000, -0,028867
469,000000, -0,028788
468,000000, -0,028684
467,000000, -0,028640
466,000000, -0,028505
465,000000, -0,028354
464,000000, -0,028344
463,000000, -0,028263
462,000000, -0,028167
461,000000, -0,028168
460,000000, -0,028165
459,000000, -0,028033
458,000000, -0,028120
457,000000, -0,027870
456,000000, -0,028265
455,000000, -0,028160
454,000000, -0,028066
453,000000, -0,028081
452,000000, -0,028217
451,000000, -0,028102
450,000000, -0,028370
449,000000, -0,028113
448,000000, -0,028108
447,000000, -0,028407
446,000000, -0,028231
445,000000, -0,028378
444,000000, -0,028704
443,000000, -0,028794
442,000000, -0,028422
441,000000, -0,028452
440,000000, -0,028415
439,000000, -0,028621
438,000000, -0,028293
437,000000, -0,028451
436,000000, -0,028496
435,000000, -0,028463
434,000000, -0,028636
433,000000, -0,028415
432,000000, -0,028698
431,000000, -0,028485
430,000000, -0,028635
429,000000, -0,028436
428,000000, -0,028503
427,000000, -0,028657
426,000000, -0,028716
425,000000, -0,028466
424,000000, -0,028551
423,000000, -0,028531
422,000000, -0,028724
421,000000, -0,028731
420,000000, -0,028605
419,000000, -0,028645
418,000000, -0,028608
417,000000, -0,028530
416,000000, -0,028468
415,000000, -0,028570
414,000000, -0,028513
413,000000, -0,028458
412,000000, -0,028115
411,000000, -0,028248
410,000000, -0,028283
409,000000, -0,028081
408,000000, -0,028134
407,000000, -0,028185
406,000000, -0,027741
405,000000, -0,027860
404,000000, -0,027959
403,000000, -0,027815
402,000000, -0,027724
401,000000, -0,027585
400,000000, -0,027450
399,000000, -0,027344
398,000000, -0,027402
397,000000, -0,027491
396,000000, -0,027487
395,000000, -0,027295
394,000000, -0,026967
393,000000, -0,027216
392,000000, -0,027073
391,000000, -0,026716
390,000000, -0,026824
389,000000, -0,026695
388,000000, -0,026587
387,000000, -0,026639
386,000000, -0,026542
385,000000, -0,026653
384,000000, -0,026505
383,000000, -0,026478
382,000000, -0,026294
381,000000, -0,026144
380,000000, -0,026084
379,000000, -0,025882
378,000000, -0,025358
377,000000, -0,026118
376,000000, -0,026156
375,000000, -0,025362
374,000000, -0,025271
373,000000, -0,025290
372,000000, -0,024939
371,000000, -0,024954
370,000000, -0,024897
369,000000, -0,024858
368,000000, -0,024691
367,000000, -0,024736
366,000000, -0,024571
365,000000, -0,024778
364,000000, -0,024480
363,000000, -0,024403
362,000000, -0,024436
361,000000, -0,024317
360,000000, -0,023561
359,000000, -0,023399
358,000000, -0,023633
357,000000, -0,023306
356,000000, -0,023411
355,000000, -0,023666
354,000000, -0,023103
353,000000, -0,022719
352,000000, -0,022435
351,000000, -0,022323
350,000000, -0,022100
349,000000, -0,021866
348,000000, -0,021755
347,000000, -0,021199
346,000000, -0,021037
345,000000, -0,021118
344,000000, -0,021022
343,000000, -0,020851
342,000000, -0,020622
341,000000, -0,020413
340,000000, -0,020229
339,000000, -0,019614
338,000000, -0,019310
337,000000, -0,019313
336,000000, -0,019131
335,000000, -0,018728
334,000000, -0,018388
333,000000, -0,018653
332,000000, -0,018313
331,000000, -0,017936
330,000000, -0,017366
329,000000, -0,016885
328,000000, -0,016697
327,000000, -0,016701
326,000000, -0,016492
325,000000, -0,016215
324,000000, -0,015575
323,000000, -0,014908
322,000000, -0,014894
321,000000, -0,014950
320,000000, -0,014688
319,000000, -0,013606
318,000000, -0,012302
317,000000, -0,011747
316,000000, -0,011276
315,000000, -0,010996
314,000000, -0,010883
313,000000, -0,010499
312,000000, -0,009671
311,000000, -0,008661
310,000000, -0,008458
309,000000, -0,008216
308,000000, -0,007736
307,000000, -0,007365
306,000000, -0,006992
305,000000, -0,006801
304,000000, -0,005999
303,000000, -0,005272
302,000000, -0,005012
301,000000, -0,004685
300,000000, -0,004300
299,000000, -0,003647
298,000000, -0,002621
297,000000, -0,002087
296,000000, -0,002045
295,000000, -0,001374
294,000000, -0,000311
293,000000, 0,000521
292,000000, 0,001599
291,000000, 0,002634
290,000000, 0,003238
289,000000, 0,004040
288,000000, 0,004619
287,000000, 0,005389
286,000000, 0,005822
285,000000, 0,006568
284,000000, 0,007659
283,000000, 0,008042
282,000000, 0,008794
281,000000, 0,009732
280,000000, 0,010233
279,000000, 0,010572
278,000000, 0,011359
277,000000, 0,011958
276,000000, 0,012662
275,000000, 0,013018
274,000000, 0,013311
273,000000, 0,013639
272,000000, 0,013876
271,000000, 0,014229
270,000000, 0,014586
269,000000, 0,015043
268,000000, 0,014939
267,000000, 0,015286
266,000000, 0,015901
265,000000, 0,015762
264,000000, 0,016208
263,000000, 0,016642
262,000000, 0,016839
261,000000, 0,017152
260,000000, 0,017546
259,000000, 0,017407
258,000000, 0,017915
257,000000, 0,018252
256,000000, 0,018351
255,000000, 0,018524
254,000000, 0,019272
253,000000, 0,019668
252,000000, 0,020218
251,000000, 0,021209
250,000000, 0,021909
