nm, A
650,000000, 0,031320
649,000000, 0,031039
648,000000, 0,030472
647,000000, 0,030948
646,000000, 0,030818
645,000000, 0,030933
644,000000, 0,030747
643,000000, 0,030808
642,000000, 0,030901
641,000000, 0,031202
640,000000, 0,030710
639,000000, 0,031260
638,000000, 0,031158
637,000000, 0,030795
636,000000, 0,030991
635,000000, 0,031125
634,000000, 0,031083
633,000000, 0,030709
632,000000, 0,031055
631,000000, 0,031293
630,000000, 0,030855
629,000000, 0,031024
628,000000, 0,031027
627,000000, 0,031390
626,000000, 0,030980
625,000000, 0,031235
624,000000, 0,030881
623,000000, 0,031033
622,000000, 0,031062
621,000000, 0,030846
620,000000, 0,030690
619,000000, 0,030766
618,000000, 0,031035
617,000000, 0,031140
616,000000, 0,031019
615,000000, 0,030556
614,000000, 0,030726
613,000000, 0,030870
612,000000, 0,030588
611,000000, 0,030589
610,000000, 0,030654
609,000000, 0,030659
608,000000, 0,030474
607,000000, 0,030710
606,000000, 0,030453
605,000000, 0,030665
604,000000, 0,030699
603,000000, 0,030573
602,000000, 0,030607
601,000000, 0,030745
600,000000, 0,030494
599,000000, 0,030871
598,000000, 0,030649
597,000000, 0,030678
596,000000, 0,030840
595,000000, 0,030844
594,000000, 0,030827
593,000000, 0,030745
592,000000, 0,030702
591,000000, 0,030631
590,000000, 0,030542
589,000000, 0,030795
588,000000, 0,030723
587,000000, 0,030728
586,000000, 0,030725
585,000000, 0,030911
584,000000, 0,030760
583,000000, 0,030719
582,000000, 0,030770
581,000000, 0,030833
580,000000, 0,030821
579,000000, 0,030741
578,000000, 0,030846
577,000000, 0,030875
576,000000, 0,031003
575,000000, 0,030822
574,000000, 0,030895
573,000000, 0,030903
572,000000, 0,030869
571,000000, 0,030853
570,000000, 0,030874
569,000000, 0,030790
568,000000, 0,030985
567,000000, 0,031051
566,000000, 0,030843
565,000000, 0,030805
564,000000, 0,031038
563,000000, 0,031023
562,000000, 0,031018
561,000000, 0,031162
560,000000, 0,031103
559,000000, 0,031180
558,000000, 0,031269
557,000000, 0,031255
556,000000, 0,031405
555,000000, 0,031435
554,000000, 0,031417
553,000000, 0,031461
552,000000, 0,031539
551,000000, 0,031496
550,000000, 0,031486
549,000000, 0,031710
548,000000, 0,031772
547,000000, 0,031737
546,000000, 0,031821
545,000000, 0,031937
544,000000, 0,032100
543,000000, 0,032163
542,000000, 0,032411
541,000000, 0,032349
540,000000, 0,032459
539,000000, 0,032662
538,000000, 0,032777
537,000000, 0,032642
536,000000, 0,032871
535,000000, 0,033186
534,000000, 0,033233
533,000000, 0,033401
532,000000, 0,033412
531,000000, 0,033506
530,000000, 0,033749
529,000000, 0,034010
528,000000, 0,034231
527,000000, 0,034448
526,000000, 0,034661
525,000000, 0,034854
524,000000, 0,034992
523,000000, 0,035331
522,000000, 0,035646
521,000000, 0,035960
520,000000, 0,036190
519,000000, 0,036466
518,000000, 0,036926
517,000000, 0,037179
516,000000, 0,037450
515,000000, 0,037885
514,000000, 0,038263
513,000000, 0,038666
512,000000, 0,039029
511,000000, 0,039459
510,000000, 0,039912
509,000000, 0,040477
508,000000, 0,040938
507,000000, 0,041357
506,000000, 0,041867
505,000000, 0,042413
504,000000, 0,042986
503,000000, 0,043510
502,000000, 0,043990
501,000000, 0,044539
500,000000, 0,045215
499,000000, 0,045922
498,000000, 0,046587
497,000000, 0,047243
496,000000, 0,047821
495,000000, 0,048563
494,000000, 0,049282
493,000000, 0,050077
492,000000, 0,050823
491,000000, 0,051388
490,000000, 0,052302
489,000000, 0,053147
488,000000, 0,054007
487,000000, 0,054905
486,000000, 0,055757
485,000000, 0,056724
484,000000, 0,057493
483,000000, 0,058303
482,000000, 0,059228
481,000000, 0,060094
480,000000, 0,061104
479,000000, 0,062023
478,000000, 0,062971
477,000000, 0,063933
476,000000, 0,064946
475,000000, 0,065959
474,000000, 0,066844
473,000000, 0,067670
472,000000, 0,068523
471,000000, 0,069573
470,000000, 0,070529
469,000000, 0,071348
468,000000, 0,072209
467,000000, 0,073248
466,000000, 0,074194
465,000000, 0,075008
464,000000, 0,075915
463,000000, 0,076834
462,000000, 0,077590
461,000000, 0,078344
460,000000, 0,079185
459,000000, 0,080015
458,000000, 0,080840
457,000000, 0,081482
456,000000, 0,082322
455,000000, 0,083261
454,000000, 0,083666
453,000000, 0,084226
452,000000, 0,084879
451,000000, 0,085508
450,000000, 0,085982
449,000000, 0,086380
448,000000, 0,086908
447,000000, 0,087086
446,000000, 0,087416
445,000000, 0,087949
444,000000, 0,088163
443,000000, 0,088662
442,000000, 0,088921
441,000000, 0,088800
440,000000, 0,088897
439,000000, 0,088668
438,000000, 0,088763
437,000000, 0,088667
436,000000, 0,088779
435,000000, 0,088585
434,000000, 0,088345
433,000000, 0,088083
432,000000, 0,087878
431,000000, 0,087528
430,000000, 0,087050
429,000000, 0,086562
428,000000, 0,085958
427,000000, 0,085364
426,000000, 0,085216
425,000000, 0,084642
424,000000, 0,083814
423,000000, 0,083153
422,000000, 0,082386
421,000000, 0,081728
420,000000, 0,080908
419,000000, 0,080012
418,000000, 0,079169
417,000000, 0,078592
416,000000, 0,077634
415,000000, 0,076875
414,000000, 0,076255
413,000000, 0,075293
412,000000, 0,074284
411,000000, 0,073381
410,000000, 0,072409
409,000000, 0,071707
408,000000, 0,070639
407,000000, 0,069723
406,000000, 0,069004
405,000000, 0,068298
404,000000, 0,067572
403,000000, 0,066715
402,000000, 0,065858
401,000000, 0,065184
400,000000, 0,064270
399,000000, 0,063680
398,000000, 0,063162
397,000000, 0,062521
396,000000, 0,062192
395,000000, 0,061876
394,000000, 0,061696
393,000000, 0,061828
392,000000, 0,062045
391,000000, 0,062328
390,000000, 0,062723
389,000000, 0,063670
388,000000, 0,064558
387,000000, 0,066397
386,000000, 0,068719
385,000000, 0,071596
384,000000, 0,075503
383,000000, 0,080399
382,000000, 0,086808
381,000000, 0,095019
380,000000, 0,104231
379,000000, 0,117617
378,000000, 0,133364
377,000000, 0,150453
376,000000, 0,168666
375,000000, 0,192020
374,000000, 0,217072
373,000000, 0,245370
372,000000, 0,275886
371,000000, 0,308490
370,000000, 0,343278
369,000000, 0,378851
368,000000, 0,416105
367,000000, 0,452195
366,000000, 0,486091
365,000000, 0,522247
364,000000, 0,554721
363,000000, 0,585986
362,000000, 0,615717
361,000000, 0,643053
360,000000, 0,671392
359,000000, 0,698281
358,000000, 0,727038
357,000000, 0,754267
356,000000, 0,782746
355,000000, 0,812920
354,000000, 0,842763
353,000000, 0,873228
352,000000, 0,903520
351,000000, 0,936559
350,000000, 0,968190
349,000000, 0,999464
348,000000, 1,028942
347,000000, 1,056623
346,000000, 1,081365
345,000000, 1,103087
344,000000, 1,122417
343,000000, 1,137530
342,000000, 1,152015
341,000000, 1,161877
340,000000, 1,168357
339,000000, 1,175890
338,000000, 1,178877
337,000000, 1,179161
336,000000, 1,181656
335,000000, 1,184220
334,000000, 1,185174
333,000000, 1,181145
332,000000, 1,182988
331,000000, 1,180330
330,000000, 1,173478
329,000000, 1,169966
328,000000, 1,163130
327,000000, 1,152637
326,000000, 1,141294
325,000000, 1,128713
324,000000, 1,114177
323,000000, 1,097945
322,000000, 1,080749
321,000000, 1,064589
320,000000, 1,045494
319,000000, 1,028153
318,000000, 1,012992
317,000000, 0,999670
316,000000, 0,984576
315,000000, 0,969505
314,000000, 0,955009
313,000000, 0,941675
312,000000, 0,925200
311,000000, 0,907879
310,000000, 0,892900
309,000000, 0,875898
308,000000, 0,858457
307,000000, 0,840721
306,000000, 0,824657
305,000000, 0,808477
304,000000, 0,793260
303,000000, 0,777138
302,000000, 0,762058
301,000000, 0,747024
300,000000, 0,731736
299,000000, 0,718066
298,000000, 0,703247
297,000000, 0,689692
296,000000, 0,675640
295,000000, 0,661107
294,000000, 0,647013
293,000000, 0,634771
292,000000, 0,622365
291,000000, 0,610031
290,000000, 0,597415
289,000000, 0,585587
288,000000, 0,575388
287,000000, 0,565317
286,000000, 0,556028
285,000000, 0,546702
284,000000, 0,539984
283,000000, 0,535331
282,000000, 0,532237
281,000000, 0,532261
280,000000, 0,535521
279,000000, 0,537761
278,000000, 0,534854
277,000000, 0,527564
276,000000, 0,518719
275,000000, 0,514367
274,000000, 0,514902
273,000000, 0,518535
272,000000, 0,522771
271,000000, 0,525615
270,000000, 0,527588
269,000000, 0,529777
268,000000, 0,536390
267,000000, 0,545869
266,000000, 0,560607
265,000000, 0,578234
264,000000, 0,597615
263,000000, 0,619134
262,000000, 0,643072
261,000000, 0,671274
260,000000, 0,701065
259,000000, 0,734428
258,000000, 0,769553
257,000000, 0,807580
256,000000, 0,845689
255,000000, 0,886025
254,000000, 0,926910
253,000000, 0,970069
252,000000, 1,015860
251,000000, 1,068136
250,000000, 1,123314
