nm, A
650,000000, 0,035898
649,000000, 0,035318
648,000000, 0,035205
647,000000, 0,035396
646,000000, 0,035414
645,000000, 0,035342
644,000000, 0,034933
643,000000, 0,035577
642,000000, 0,035865
641,000000, 0,035717
640,000000, 0,036141
639,000000, 0,035579
638,000000, 0,035588
637,000000, 0,035743
636,000000, 0,035686
635,000000, 0,035651
634,000000, 0,035739
633,000000, 0,035779
632,000000, 0,035469
631,000000, 0,035889
630,000000, 0,035871
629,000000, 0,035959
628,000000, 0,035744
627,000000, 0,035887
626,000000, 0,035888
625,000000, 0,035843
624,000000, 0,035863
623,000000, 0,035735
622,000000, 0,035886
621,000000, 0,035999
620,000000, 0,035708
619,000000, 0,035594
618,000000, 0,035828
617,000000, 0,035795
616,000000, 0,035930
615,000000, 0,035771
614,000000, 0,035832
613,000000, 0,035748
612,000000, 0,035786
611,000000, 0,035630
610,000000, 0,035755
609,000000, 0,035941
608,000000, 0,036027
607,000000, 0,035733
606,000000, 0,035902
605,000000, 0,035902
604,000000, 0,036180
603,000000, 0,035885
602,000000, 0,035860
601,000000, 0,036042
600,000000, 0,035705
599,000000, 0,036018
598,000000, 0,036210
597,000000, 0,035959
596,000000, 0,036131
595,000000, 0,036030
594,000000, 0,036200
593,000000, 0,036107
592,000000, 0,035982
591,000000, 0,036205
590,000000, 0,036444
589,000000, 0,036415
588,000000, 0,036051
587,000000, 0,036278
586,000000, 0,036288
585,000000, 0,036483
584,000000, 0,036469
583,000000, 0,036430
582,000000, 0,036350
581,000000, 0,036467
580,000000, 0,036568
579,000000, 0,036597
578,000000, 0,036745
577,000000, 0,036644
576,000000, 0,036842
575,000000, 0,036689
574,000000, 0,036990
573,000000, 0,037154
572,000000, 0,036894
571,000000, 0,036977
570,000000, 0,037153
569,000000, 0,037225
568,000000, 0,036972
567,000000, 0,037119
566,000000, 0,037235
565,000000, 0,037341
564,000000, 0,037448
563,000000, 0,037634
562,000000, 0,037683
561,000000, 0,037740
560,000000, 0,038089
559,000000, 0,037916
558,000000, 0,038086
557,000000, 0,038246
556,000000, 0,038419
555,000000, 0,038520
554,000000, 0,038553
553,000000, 0,038654
552,000000, 0,038953
551,000000, 0,039058
550,000000, 0,039143
549,000000, 0,039231
548,000000, 0,039303
547,000000, 0,039639
546,000000, 0,039680
545,000000, 0,039837
544,000000, 0,039946
543,000000, 0,040166
542,000000, 0,040360
541,000000, 0,040568
540,000000, 0,040684
539,000000, 0,040850
538,000000, 0,041162
537,000000, 0,041556
536,000000, 0,041784
535,000000, 0,041880
534,000000, 0,042067
533,000000, 0,042474
532,000000, 0,042771
531,000000, 0,043061
530,000000, 0,043407
529,000000, 0,043580
528,000000, 0,043977
527,000000, 0,044360
526,000000, 0,044794
525,000000, 0,045331
524,000000, 0,045700
523,000000, 0,045991
522,000000, 0,046455
521,000000, 0,046959
520,000000, 0,047523
519,000000, 0,048129
518,000000, 0,048620
517,000000, 0,049036
516,000000, 0,049607
515,000000, 0,050254
514,000000, 0,050940
513,000000, 0,051641
512,000000, 0,052339
511,000000, 0,053070
510,000000, 0,053893
509,000000, 0,054628
508,000000, 0,055426
507,000000, 0,056360
506,000000, 0,057176
505,000000, 0,058059
504,000000, 0,059028
503,000000, 0,059900
502,000000, 0,060789
501,000000, 0,061844
500,000000, 0,062985
499,000000, 0,064079
498,000000, 0,065094
497,000000, 0,066194
496,000000, 0,067211
495,000000, 0,068462
494,000000, 0,069719
493,000000, 0,070956
492,000000, 0,072399
491,000000, 0,073813
490,000000, 0,075176
489,000000, 0,076481
488,000000, 0,077773
487,000000, 0,079048
486,000000, 0,080385
485,000000, 0,081962
484,000000, 0,083633
483,000000, 0,085160
482,000000, 0,086741
481,000000, 0,088392
480,000000, 0,090005
479,000000, 0,091509
478,000000, 0,093129
477,000000, 0,094873
476,000000, 0,096607
475,000000, 0,098165
474,000000, 0,099743
473,000000, 0,101329
472,000000, 0,103032
471,000000, 0,104784
470,000000, 0,106448
469,000000, 0,108176
468,000000, 0,109885
467,000000, 0,111478
466,000000, 0,113153
465,000000, 0,114897
464,000000, 0,116362
463,000000, 0,117803
462,000000, 0,119320
461,000000, 0,120821
460,000000, 0,122332
459,000000, 0,123671
458,000000, 0,125256
457,000000, 0,126590
456,000000, 0,127734
455,000000, 0,129197
454,000000, 0,130487
453,000000, 0,131536
452,000000, 0,132597
451,000000, 0,133637
450,000000, 0,134664
449,000000, 0,135908
448,000000, 0,136726
447,000000, 0,137439
446,000000, 0,138175
445,000000, 0,138893
444,000000, 0,139742
443,000000, 0,140369
442,000000, 0,140671
441,000000, 0,141226
440,000000, 0,141602
439,000000, 0,141808
438,000000, 0,142180
437,000000, 0,142555
436,000000, 0,142840
435,000000, 0,142939
434,000000, 0,142976
433,000000, 0,142843
432,000000, 0,143017
431,000000, 0,143322
430,000000, 0,143154
429,000000, 0,142844
428,000000, 0,143175
427,000000, 0,143301
426,000000, 0,143568
425,000000, 0,143515
424,000000, 0,144033
423,000000, 0,144499
422,000000, 0,145000
421,000000, 0,145681
420,000000, 0,146851
419,000000, 0,147848
418,000000, 0,149335
417,000000, 0,151149
416,000000, 0,153149
415,000000, 0,155322
414,000000, 0,158304
413,000000, 0,161937
412,000000, 0,165673
411,000000, 0,169774
410,000000, 0,174238
409,000000, 0,179720
408,000000, 0,185634
407,000000, 0,191890
406,000000, 0,198745
405,000000, 0,206508
404,000000, 0,214660
403,000000, 0,223113
402,000000, 0,232341
401,000000, 0,241757
400,000000, 0,252650
399,000000, 0,263482
398,000000, 0,275844
397,000000, 0,288447
396,000000, 0,302170
395,000000, 0,317387
394,000000, 0,333047
393,000000, 0,349233
392,000000, 0,367493
391,000000, 0,387279
390,000000, 0,407634
389,000000, 0,429380
388,000000, 0,452887
387,000000, 0,476542
386,000000, 0,500320
385,000000, 0,524293
384,000000, 0,548001
383,000000, 0,570141
382,000000, 0,591602
381,000000, 0,611483
380,000000, 0,629579
379,000000, 0,648542
378,000000, 0,661559
377,000000, 0,672373
376,000000, 0,683692
375,000000, 0,691220
374,000000, 0,699695
373,000000, 0,706524
372,000000, 0,712715
371,000000, 0,720902
370,000000, 0,727407
369,000000, 0,735818
368,000000, 0,743727
367,000000, 0,751301
366,000000, 0,760112
365,000000, 0,768094
364,000000, 0,776463
363,000000, 0,783866
362,000000, 0,788655
361,000000, 0,792996
360,000000, 0,793434
359,000000, 0,792200
358,000000, 0,790058
357,000000, 0,786083
356,000000, 0,779283
355,000000, 0,771649
354,000000, 0,763673
353,000000, 0,753220
352,000000, 0,745287
351,000000, 0,736377
350,000000, 0,728762
349,000000, 0,720044
348,000000, 0,712806
347,000000, 0,706109
346,000000, 0,699592
345,000000, 0,690801
344,000000, 0,684953
343,000000, 0,675140
342,000000, 0,668170
341,000000, 0,658770
340,000000, 0,649647
339,000000, 0,639103
338,000000, 0,628069
337,000000, 0,617841
336,000000, 0,607456
335,000000, 0,597315
334,000000, 0,587095
333,000000, 0,579509
332,000000, 0,572409
331,000000, 0,563640
330,000000, 0,556668
329,000000, 0,550238
328,000000, 0,544545
327,000000, 0,539765
326,000000, 0,536181
325,000000, 0,532459
324,000000, 0,531108
323,000000, 0,529771
322,000000, 0,529067
321,000000, 0,532813
320,000000, 0,535638
319,000000, 0,541521
318,000000, 0,549723
317,000000, 0,560222
316,000000, 0,571402
315,000000, 0,583964
314,000000, 0,598320
313,000000, 0,611007
312,000000, 0,623945
311,000000, 0,635864
310,000000, 0,647735
309,000000, 0,658082
308,000000, 0,668276
307,000000, 0,678581
306,000000, 0,687019
305,000000, 0,695900
304,000000, 0,703476
303,000000, 0,709556
302,000000, 0,717294
301,000000, 0,723130
300,000000, 0,731298
299,000000, 0,735168
298,000000, 0,739854
297,000000, 0,744601
296,000000, 0,747655
295,000000, 0,749011
294,000000, 0,749003
293,000000, 0,747863
292,000000, 0,745298
291,000000, 0,741388
290,000000, 0,738713
289,000000, 0,734975
288,000000, 0,730770
287,000000, 0,728009
286,000000, 0,728405
285,000000, 0,729683
284,000000, 0,733039
283,000000, 0,743002
282,000000, 0,760529
281,000000, 0,789878
280,000000, 0,821503
279,000000, 0,849943
278,000000, 0,861516
277,000000, 0,855442
276,000000, 0,842198
275,000000, 0,840510
274,000000, 0,851503
273,000000, 0,870934
272,000000, 0,888399
271,000000, 0,894498
270,000000, 0,887463
269,000000, 0,877001
268,000000, 0,870280
267,000000, 0,872351
266,000000, 0,876840
265,000000, 0,882744
264,000000, 0,888594
263,000000, 0,896433
262,000000, 0,905092
261,000000, 0,919249
260,000000, 0,939449
259,000000, 0,961905
258,000000, 0,984611
257,000000, 1,006780
256,000000, 1,026382
255,000000, 1,044503
254,000000, 1,064079
253,000000, 1,084428
252,000000, 1,107304
251,000000, 1,131173
250,000000, 1,153424
