nm, A
650,000000, 0,033888
649,000000, 0,033939
648,000000, 0,033958
647,000000, 0,034125
646,000000, 0,034047
645,000000, 0,034125
644,000000, 0,033847
643,000000, 0,034069
642,000000, 0,034095
641,000000, 0,034134
640,000000, 0,034662
639,000000, 0,033921
638,000000, 0,033875
637,000000, 0,034310
636,000000, 0,034248
635,000000, 0,034019
634,000000, 0,034306
633,000000, 0,034369
632,000000, 0,034044
631,000000, 0,034480
630,000000, 0,034340
629,000000, 0,034345
628,000000, 0,034377
627,000000, 0,034565
626,000000, 0,034539
625,000000, 0,034481
624,000000, 0,034323
623,000000, 0,034336
622,000000, 0,034495
621,000000, 0,034591
620,000000, 0,034449
619,000000, 0,034247
618,000000, 0,034431
617,000000, 0,034225
616,000000, 0,034685
615,000000, 0,034600
614,000000, 0,034705
613,000000, 0,034678
612,000000, 0,034571
611,000000, 0,034432
610,000000, 0,034347
609,000000, 0,034595
608,000000, 0,034591
607,000000, 0,034400
606,000000, 0,034345
605,000000, 0,034476
604,000000, 0,034694
603,000000, 0,034433
602,000000, 0,034334
601,000000, 0,034630
600,000000, 0,034687
599,000000, 0,034847
598,000000, 0,034782
597,000000, 0,034599
596,000000, 0,034743
595,000000, 0,034628
594,000000, 0,034886
593,000000, 0,034655
592,000000, 0,034570
591,000000, 0,034838
590,000000, 0,035147
589,000000, 0,035116
588,000000, 0,034977
587,000000, 0,035091
586,000000, 0,035253
585,000000, 0,035420
584,000000, 0,035406
583,000000, 0,035497
582,000000, 0,035400
581,000000, 0,035536
580,000000, 0,035522
579,000000, 0,035566
578,000000, 0,035906
577,000000, 0,035827
576,000000, 0,035880
575,000000, 0,035855
574,000000, 0,036127
573,000000, 0,036255
572,000000, 0,036096
571,000000, 0,036071
570,000000, 0,036263
569,000000, 0,036488
568,000000, 0,036609
567,000000, 0,036721
566,000000, 0,036965
565,000000, 0,036912
564,000000, 0,036872
563,000000, 0,037199
562,000000, 0,037376
561,000000, 0,037446
560,000000, 0,037714
559,000000, 0,037733
558,000000, 0,037933
557,000000, 0,038065
556,000000, 0,038287
555,000000, 0,038377
554,000000, 0,038674
553,000000, 0,038750
552,000000, 0,038997
551,000000, 0,039327
550,000000, 0,039527
549,000000, 0,039820
548,000000, 0,040108
547,000000, 0,040354
546,000000, 0,040497
545,000000, 0,040820
544,000000, 0,041016
543,000000, 0,041375
542,000000, 0,041774
541,000000, 0,042209
540,000000, 0,042364
539,000000, 0,042719
538,000000, 0,043174
537,000000, 0,043730
536,000000, 0,044169
535,000000, 0,044455
534,000000, 0,044819
533,000000, 0,045414
532,000000, 0,045961
531,000000, 0,046378
530,000000, 0,046870
529,000000, 0,047363
528,000000, 0,048046
527,000000, 0,048645
526,000000, 0,049233
525,000000, 0,050061
524,000000, 0,050730
523,000000, 0,051203
522,000000, 0,051994
521,000000, 0,052849
520,000000, 0,053733
519,000000, 0,054626
518,000000, 0,055393
517,000000, 0,056037
516,000000, 0,056951
515,000000, 0,058030
514,000000, 0,059129
513,000000, 0,060036
512,000000, 0,061089
511,000000, 0,062210
510,000000, 0,063306
509,000000, 0,064454
508,000000, 0,065639
507,000000, 0,066822
506,000000, 0,068007
505,000000, 0,069363
504,000000, 0,070725
503,000000, 0,071916
502,000000, 0,073224
501,000000, 0,074631
500,000000, 0,076044
499,000000, 0,077662
498,000000, 0,079289
497,000000, 0,080883
496,000000, 0,082445
495,000000, 0,084066
494,000000, 0,085569
493,000000, 0,087350
492,000000, 0,089361
491,000000, 0,091081
490,000000, 0,092830
489,000000, 0,094711
488,000000, 0,096406
487,000000, 0,098107
486,000000, 0,099973
485,000000, 0,101773
484,000000, 0,103791
483,000000, 0,105692
482,000000, 0,107744
481,000000, 0,109859
480,000000, 0,111585
479,000000, 0,113322
478,000000, 0,115286
477,000000, 0,117319
476,000000, 0,119129
475,000000, 0,120972
474,000000, 0,122974
473,000000, 0,124800
472,000000, 0,126616
471,000000, 0,128398
470,000000, 0,130147
469,000000, 0,131969
468,000000, 0,133752
467,000000, 0,135378
466,000000, 0,137061
465,000000, 0,138739
464,000000, 0,140075
463,000000, 0,141476
462,000000, 0,142828
461,000000, 0,144102
460,000000, 0,145278
459,000000, 0,146340
458,000000, 0,147588
457,000000, 0,148542
456,000000, 0,149442
455,000000, 0,150334
454,000000, 0,151052
453,000000, 0,151749
452,000000, 0,152225
451,000000, 0,152521
450,000000, 0,152869
449,000000, 0,153235
448,000000, 0,153111
447,000000, 0,153079
446,000000, 0,152889
445,000000, 0,152728
444,000000, 0,152363
443,000000, 0,151871
442,000000, 0,151189
441,000000, 0,150458
440,000000, 0,149713
439,000000, 0,148716
438,000000, 0,147732
437,000000, 0,146710
436,000000, 0,145519
435,000000, 0,143951
434,000000, 0,142298
433,000000, 0,140730
432,000000, 0,139570
431,000000, 0,137928
430,000000, 0,136176
429,000000, 0,134029
428,000000, 0,132039
427,000000, 0,130283
426,000000, 0,128101
425,000000, 0,125946
424,000000, 0,124316
423,000000, 0,121820
422,000000, 0,119670
421,000000, 0,117409
420,000000, 0,115590
419,000000, 0,113619
418,000000, 0,111023
417,000000, 0,108829
416,000000, 0,107016
415,000000, 0,104468
414,000000, 0,102570
413,000000, 0,100906
412,000000, 0,098834
411,000000, 0,096593
410,000000, 0,094538
409,000000, 0,092861
408,000000, 0,091111
407,000000, 0,089446
406,000000, 0,087573
405,000000, 0,086184
404,000000, 0,084924
403,000000, 0,083143
402,000000, 0,081621
401,000000, 0,080378
400,000000, 0,079410
399,000000, 0,078143
398,000000, 0,077539
397,000000, 0,076250
396,000000, 0,075403
395,000000, 0,075063
394,000000, 0,074366
393,000000, 0,073748
392,000000, 0,072957
391,000000, 0,072803
390,000000, 0,072294
389,000000, 0,072229
388,000000, 0,071883
387,000000, 0,072481
386,000000, 0,072136
385,000000, 0,072344
384,000000, 0,072688
383,000000, 0,072757
382,000000, 0,072781
381,000000, 0,073542
380,000000, 0,073663
379,000000, 0,074070
378,000000, 0,073906
377,000000, 0,074147
376,000000, 0,074351
375,000000, 0,074385
374,000000, 0,075454
373,000000, 0,075529
372,000000, 0,076402
371,000000, 0,076835
370,000000, 0,077396
369,000000, 0,078918
368,000000, 0,079209
367,000000, 0,080878
366,000000, 0,082319
365,000000, 0,083495
364,000000, 0,085020
363,000000, 0,087326
362,000000, 0,089545
361,000000, 0,091915
360,000000, 0,094140
359,000000, 0,097468
358,000000, 0,100392
357,000000, 0,103844
356,000000, 0,107637
355,000000, 0,112442
354,000000, 0,116858
353,000000, 0,121487
352,000000, 0,126343
351,000000, 0,132754
350,000000, 0,138913
349,000000, 0,146239
348,000000, 0,153607
347,000000, 0,161689
346,000000, 0,170231
345,000000, 0,178535
344,000000, 0,186902
343,000000, 0,197052
342,000000, 0,206927
341,000000, 0,217025
340,000000, 0,226681
339,000000, 0,238795
338,000000, 0,250205
337,000000, 0,260757
336,000000, 0,273017
335,000000, 0,286041
334,000000, 0,297947
333,000000, 0,309690
332,000000, 0,323206
331,000000, 0,336438
330,000000, 0,349476
329,000000, 0,362607
328,000000, 0,377269
327,000000, 0,391297
326,000000, 0,406754
325,000000, 0,419569
324,000000, 0,436259
323,000000, 0,451464
322,000000, 0,468156
321,000000, 0,485941
320,000000, 0,504928
319,000000, 0,526451
318,000000, 0,547854
317,000000, 0,567959
316,000000, 0,589400
315,000000, 0,610237
314,000000, 0,632470
313,000000, 0,653185
312,000000, 0,672495
311,000000, 0,691888
310,000000, 0,707269
309,000000, 0,722582
308,000000, 0,735248
307,000000, 0,747942
306,000000, 0,755776
305,000000, 0,765298
304,000000, 0,773253
303,000000, 0,779455
302,000000, 0,785901
301,000000, 0,791602
300,000000, 0,797412
299,000000, 0,802197
298,000000, 0,804229
297,000000, 0,807198
296,000000, 0,808001
295,000000, 0,806524
294,000000, 0,804185
293,000000, 0,800348
292,000000, 0,796832
291,000000, 0,790634
290,000000, 0,784912
289,000000, 0,779700
288,000000, 0,775215
287,000000, 0,770551
286,000000, 0,767607
285,000000, 0,766306
284,000000, 0,768194
283,000000, 0,778423
282,000000, 0,795642
281,000000, 0,823805
280,000000, 0,857036
279,000000, 0,886696
278,000000, 0,897241
277,000000, 0,892687
276,000000, 0,882717
275,000000, 0,883540
274,000000, 0,896540
273,000000, 0,921441
272,000000, 0,943196
271,000000, 0,953486
270,000000, 0,952336
269,000000, 0,946756
268,000000, 0,945523
267,000000, 0,950498
266,000000, 0,959193
265,000000, 0,966779
264,000000, 0,970818
263,000000, 0,972380
262,000000, 0,974298
261,000000, 0,977565
260,000000, 0,983358
259,000000, 0,990219
258,000000, 0,998619
257,000000, 1,008111
256,000000, 1,016637
255,000000, 1,026700
254,000000, 1,037099
253,000000, 1,049503
252,000000, 1,061231
251,000000, 1,074281
250,000000, 1,086158
