nm, A
650,000000, -0,041508
649,000000, -0,041179
648,000000, -0,041010
647,000000, -0,041025
646,000000, -0,040774
645,000000, -0,040718
644,000000, -0,040347
643,000000, -0,040710
642,000000, -0,040715
641,000000, -0,040520
640,000000, -0,040835
639,000000, -0,040300
638,000000, -0,040150
637,000000, -0,040160
636,000000, -0,040049
635,000000, -0,039916
634,000000, -0,039950
633,000000, -0,039881
632,000000, -0,039666
631,000000, -0,039811
630,000000, -0,039499
629,000000, -0,039469
628,000000, -0,039433
627,000000, -0,039409
626,000000, -0,039335
625,000000, -0,039274
624,000000, -0,039123
623,000000, -0,038922
622,000000, -0,039008
621,000000, -0,039021
620,000000, -0,038851
619,000000, -0,038638
618,000000, -0,038719
617,000000, -0,038539
616,000000, -0,038651
615,000000, -0,038625
614,000000, -0,038587
613,000000, -0,038560
612,000000, -0,038359
611,000000, -0,038288
610,000000, -0,038254
609,000000, -0,038316
608,000000, -0,038293
607,000000, -0,038099
606,000000, -0,038097
605,000000, -0,038005
604,000000, -0,038093
603,000000, -0,038027
602,000000, -0,037835
601,000000, -0,037933
600,000000, -0,037827
599,000000, -0,037996
598,000000, -0,038064
597,000000, -0,037872
596,000000, -0,037841
595,000000, -0,037725
594,000000, -0,037836
593,000000, -0,037645
592,000000, -0,037545
591,000000, -0,037742
590,000000, -0,037861
589,000000, -0,037728
588,000000, -0,037450
587,000000, -0,037555
586,000000, -0,037668
585,000000, -0,037788
584,000000, -0,037631
583,000000, -0,037550
582,000000, -0,037481
581,000000, -0,037425
580,000000, -0,037517
579,000000, -0,037508
578,000000, -0,037654
577,000000, -0,037436
576,000000, -0,037518
575,000000, -0,037391
574,000000, -0,037496
573,000000, -0,037505
572,000000, -0,037351
571,000000, -0,037299
570,000000, -0,037417
569,000000, -0,037354
568,000000, -0,037251
567,000000, -0,037342
566,000000, -0,037244
565,000000, -0,037248
564,000000, -0,037238
563,000000, -0,037525
562,000000, -0,037861
561,000000, -0,037790
560,000000, -0,037997
559,000000, -0,037944
558,000000, -0,037816
557,000000, -0,037902
556,000000, -0,037882
555,000000, -0,037964
554,000000, -0,037891
553,000000, -0,037794
552,000000, -0,037822
551,000000, -0,037933
550,000000, -0,037917
549,000000, -0,037822
548,000000, -0,037835
547,000000, -0,037853
546,000000, -0,037791
545,000000, -0,037780
544,000000, -0,037746
543,000000, -0,037791
542,000000, -0,037781
541,000000, -0,037856
540,000000, -0,037794
539,000000, -0,037849
538,000000, -0,037974
537,000000, -0,037970
536,000000, -0,037981
535,000000, -0,037968
534,000000, -0,037898
533,000000, -0,037998
532,000000, -0,037953
531,000000, -0,037948
530,000000, -0,037974
529,000000, -0,037899
528,000000, -0,037951
527,000000, -0,038018
526,000000, -0,038120
525,000000, -0,038183
524,000000, -0,038182
523,000000, -0,038113
522,000000, -0,038179
521,000000, -0,038287
520,000000, -0,038364
519,000000, -0,038418
518,000000, -0,038412
517,000000, -0,038338
516,000000, -0,038386
515,000000, -0,038503
514,000000, -0,038621
513,000000, -0,038662
512,000000, -0,038725
511,000000, -0,038775
510,000000, -0,038803
509,000000, -0,038811
508,000000, -0,038838
507,000000, -0,038893
506,000000, -0,038833
505,000000, -0,038783
504,000000, -0,038746
503,000000, -0,038624
502,000000, -0,038559
501,000000, -0,038499
500,000000, -0,038395
499,000000, -0,038408
498,000000, -0,038368
497,000000, -0,038303
496,000000, -0,038150
495,000000, -0,038099
494,000000, -0,038028
493,000000, -0,038009
492,000000, -0,038120
491,000000, -0,038124
490,000000, -0,038132
489,000000, -0,038103
488,000000, -0,038048
487,000000, -0,038051
486,000000, -0,038046
485,000000, -0,038045
484,000000, -0,038204
483,000000, -0,038290
482,000000, -0,038341
481,000000, -0,038435
480,000000, -0,038424
479,000000, -0,038387
478,000000, -0,038487
477,000000, -0,038555
476,000000, -0,038538
475,000000, -0,038455
474,000000, -0,038456
473,000000, -0,038429
472,000000, -0,038432
471,000000, -0,038415
470,000000, -0,038377
469,000000, -0,038347
468,000000, -0,038320
467,000000, -0,038200
466,000000, -0,038125
465,000000, -0,038122
464,000000, -0,037945
463,000000, -0,037837
462,000000, -0,037708
461,000000, -0,037648
460,000000, -0,037618
459,000000, -0,037511
458,000000, -0,037561
457,000000, -0,037545
456,000000, -0,037579
455,000000, -0,037673
454,000000, -0,037707
453,000000, -0,037806
452,000000, -0,037859
451,000000, -0,037847
450,000000, -0,037882
449,000000, -0,038079
448,000000, -0,038047
447,000000, -0,038006
446,000000, -0,038120
445,000000, -0,038125
444,000000, -0,038325
443,000000, -0,038438
442,000000, -0,038306
441,000000, -0,038253
440,000000, -0,038197
439,000000, -0,038324
438,000000, -0,038471
437,000000, -0,038463
436,000000, -0,038510
435,000000, -0,038530
434,000000, -0,038521
433,000000, -0,038447
432,000000, -0,038602
431,000000, -0,038702
430,000000, -0,038639
429,000000, -0,038332
428,000000, -0,038485
427,000000, -0,038608
426,000000, -0,038576
425,000000, -0,038499
424,000000, -0,038689
423,000000, -0,038518
422,000000, -0,038538
421,000000, -0,038508
420,000000, -0,038674
419,000000, -0,038752
418,000000, -0,038632
417,000000, -0,038654
416,000000, -0,038784
415,000000, -0,038507
414,000000, -0,038602
413,000000, -0,038787
412,000000, -0,038826
411,000000, -0,038491
410,000000, -0,038406
409,000000, -0,038499
408,000000, -0,038512
407,000000, -0,038419
406,000000, -0,038180
405,000000, -0,038361
404,000000, -0,038448
403,000000, -0,038247
402,000000, -0,038228
401,000000, -0,038146
400,000000, -0,038116
399,000000, -0,038032
398,000000, -0,038236
397,000000, -0,037977
396,000000, -0,037967
395,000000, -0,038131
394,000000, -0,038028
393,000000, -0,037787
392,000000, -0,037628
391,000000, -0,037738
390,000000, -0,037701
389,000000, -0,037560
388,000000, -0,037639
387,000000, -0,037736
386,000000, -0,037604
385,000000, -0,037553
384,000000, -0,037483
383,000000, -0,037315
382,000000, -0,037309
381,000000, -0,037514
380,000000, -0,037495
379,000000, -0,037426
378,000000, -0,036864
377,000000, -0,037055
376,000000, -0,036960
375,000000, -0,036850
374,000000, -0,036959
373,000000, -0,036363
372,000000, -0,036836
371,000000, -0,036912
370,000000, -0,036654
369,000000, -0,037023
368,000000, -0,036742
367,000000, -0,036825
366,000000, -0,036514
365,000000, -0,036290
364,000000, -0,036128
363,000000, -0,036173
362,000000, -0,036071
361,000000, -0,036352
360,000000, -0,036043
359,000000, -0,035947
358,000000, -0,036264
357,000000, -0,035639
356,000000, -0,035751
355,000000, -0,035654
354,000000, -0,035684
353,000000, -0,035278
352,000000, -0,034923
351,000000, -0,034911
350,000000, -0,034651
349,000000, -0,035004
348,000000, -0,034839
347,000000, -0,034725
346,000000, -0,034817
345,000000, -0,033652
344,000000, -0,033631
343,000000, -0,033678
342,000000, -0,033690
341,000000, -0,033720
340,000000, -0,033297
339,000000, -0,033187
338,000000, -0,032999
337,000000, -0,032557
336,000000, -0,032423
335,000000, -0,032010
334,000000, -0,031432
333,000000, -0,031337
332,000000, -0,031786
331,000000, -0,031248
330,000000, -0,030876
329,000000, -0,030382
328,000000, -0,030760
327,000000, -0,030201
326,000000, -0,030085
325,000000, -0,029737
324,000000, -0,029845
323,000000, -0,029716
322,000000, -0,029142
321,000000, -0,029764
320,000000, -0,029471
319,000000, -0,026057
318,000000, -0,026100
317,000000, -0,025369
316,000000, -0,025534
315,000000, -0,024739
314,000000, -0,024857
313,000000, -0,024565
312,000000, -0,024340
311,000000, -0,023857
310,000000, -0,023410
309,000000, -0,023060
308,000000, -0,022926
307,000000, -0,022953
306,000000, -0,022445
305,000000, -0,022494
304,000000, -0,021871
303,000000, -0,021126
302,000000, -0,020805
301,000000, -0,019830
300,000000, -0,020365
299,000000, -0,019767
298,000000, -0,018913
297,000000, -0,018273
296,000000, -0,018308
295,000000, -0,017762
294,000000, -0,017150
293,000000, -0,016279
292,000000, -0,016005
291,000000, -0,015553
290,000000, -0,014637
289,000000, -0,013754
288,000000, -0,013131
287,000000, -0,012615
286,000000, -0,012127
285,000000, -0,011749
284,000000, -0,010698
283,000000, -0,010491
282,000000, -0,009439
281,000000, -0,009557
280,000000, -0,008400
279,000000, -0,007529
278,000000, -0,006887
277,000000, -0,006757
276,000000, -0,005830
275,000000, -0,005962
274,000000, -0,005382
273,000000, -0,005248
272,000000, -0,004731
271,000000, -0,004673
270,000000, -0,004237
269,000000, -0,003706
268,000000, -0,003129
267,000000, -0,002926
266,000000, -0,002874
265,000000, -0,002768
264,000000, -0,002558
263,000000, -0,002181
262,000000, -0,001676
261,000000, -0,001406
260,000000, -0,001384
259,000000, -0,001362
258,000000, -0,000867
257,000000, -0,001093
256,000000, -0,000497
255,000000, 0,000122
254,000000, 0,000399
253,000000, 0,000727
252,000000, 0,001226
251,000000, 0,001466
250,000000, 0,001950
