nm, A
650,000000, 0,034454
649,000000, 0,034107
648,000000, 0,034280
647,000000, 0,034016
646,000000, 0,033778
645,000000, 0,034030
644,000000, 0,033701
643,000000, 0,034144
642,000000, 0,034466
641,000000, 0,034307
640,000000, 0,034832
639,000000, 0,034196
638,000000, 0,034125
637,000000, 0,034357
636,000000, 0,034566
635,000000, 0,034244
634,000000, 0,034410
633,000000, 0,034550
632,000000, 0,034249
631,000000, 0,034491
630,000000, 0,034314
629,000000, 0,034582
628,000000, 0,034588
627,000000, 0,034389
626,000000, 0,034575
625,000000, 0,034868
624,000000, 0,034576
623,000000, 0,034442
622,000000, 0,034542
621,000000, 0,034583
620,000000, 0,034809
619,000000, 0,034536
618,000000, 0,034405
617,000000, 0,034478
616,000000, 0,034695
615,000000, 0,034535
614,000000, 0,034475
613,000000, 0,034669
612,000000, 0,034433
611,000000, 0,034603
610,000000, 0,034564
609,000000, 0,034666
608,000000, 0,034830
607,000000, 0,034698
606,000000, 0,034749
605,000000, 0,034658
604,000000, 0,034677
603,000000, 0,034656
602,000000, 0,034556
601,000000, 0,034569
600,000000, 0,034608
599,000000, 0,034996
598,000000, 0,034945
597,000000, 0,034766
596,000000, 0,035009
595,000000, 0,035150
594,000000, 0,035267
593,000000, 0,035169
592,000000, 0,034885
591,000000, 0,035282
590,000000, 0,035459
589,000000, 0,035316
588,000000, 0,034957
587,000000, 0,035199
586,000000, 0,035346
585,000000, 0,035574
584,000000, 0,035614
583,000000, 0,035502
582,000000, 0,035542
581,000000, 0,035465
580,000000, 0,035896
579,000000, 0,035781
578,000000, 0,035986
577,000000, 0,035864
576,000000, 0,035898
575,000000, 0,035980
574,000000, 0,036155
573,000000, 0,036416
572,000000, 0,036341
571,000000, 0,036408
570,000000, 0,036432
569,000000, 0,036546
568,000000, 0,036579
567,000000, 0,036893
566,000000, 0,036889
565,000000, 0,037110
564,000000, 0,037170
563,000000, 0,037308
562,000000, 0,037435
561,000000, 0,037467
560,000000, 0,037934
559,000000, 0,037991
558,000000, 0,038005
557,000000, 0,038234
556,000000, 0,038512
555,000000, 0,038895
554,000000, 0,038982
553,000000, 0,039097
552,000000, 0,039315
551,000000, 0,039697
550,000000, 0,039931
549,000000, 0,040122
548,000000, 0,040276
547,000000, 0,040601
546,000000, 0,040779
545,000000, 0,041126
544,000000, 0,041457
543,000000, 0,041772
542,000000, 0,042087
541,000000, 0,042388
540,000000, 0,042809
539,000000, 0,043218
538,000000, 0,043718
537,000000, 0,044175
536,000000, 0,044568
535,000000, 0,044986
534,000000, 0,045404
533,000000, 0,045973
532,000000, 0,046334
531,000000, 0,046803
530,000000, 0,047439
529,000000, 0,047866
528,000000, 0,048490
527,000000, 0,049161
526,000000, 0,049930
525,000000, 0,050664
524,000000, 0,051351
523,000000, 0,052028
522,000000, 0,052823
521,000000, 0,053602
520,000000, 0,054466
519,000000, 0,055371
518,000000, 0,056189
517,000000, 0,056922
516,000000, 0,057912
515,000000, 0,058965
514,000000, 0,059998
513,000000, 0,061094
512,000000, 0,062193
511,000000, 0,063256
510,000000, 0,064412
509,000000, 0,065539
508,000000, 0,066814
507,000000, 0,068193
506,000000, 0,069404
505,000000, 0,070650
504,000000, 0,072042
503,000000, 0,073480
502,000000, 0,074973
501,000000, 0,076399
500,000000, 0,077931
499,000000, 0,079539
498,000000, 0,081013
497,000000, 0,082693
496,000000, 0,084257
495,000000, 0,085880
494,000000, 0,087696
493,000000, 0,089472
492,000000, 0,091339
491,000000, 0,093119
490,000000, 0,094991
489,000000, 0,096864
488,000000, 0,098686
487,000000, 0,100608
486,000000, 0,102485
485,000000, 0,104373
484,000000, 0,106425
483,000000, 0,108522
482,000000, 0,110486
481,000000, 0,112457
480,000000, 0,114561
479,000000, 0,116501
478,000000, 0,118454
477,000000, 0,120589
476,000000, 0,122586
475,000000, 0,124411
474,000000, 0,126397
473,000000, 0,128337
472,000000, 0,130165
471,000000, 0,132116
470,000000, 0,134082
469,000000, 0,135863
468,000000, 0,137683
467,000000, 0,139441
466,000000, 0,141155
465,000000, 0,142793
464,000000, 0,144343
463,000000, 0,145918
462,000000, 0,147312
461,000000, 0,148708
460,000000, 0,149968
459,000000, 0,151202
458,000000, 0,152353
457,000000, 0,153353
456,000000, 0,154417
455,000000, 0,155394
454,000000, 0,156034
453,000000, 0,156741
452,000000, 0,157268
451,000000, 0,157934
450,000000, 0,158239
449,000000, 0,158321
448,000000, 0,158306
447,000000, 0,158386
446,000000, 0,158294
445,000000, 0,157914
444,000000, 0,157772
443,000000, 0,157557
442,000000, 0,156783
441,000000, 0,155962
440,000000, 0,155043
439,000000, 0,154177
438,000000, 0,153313
437,000000, 0,152253
436,000000, 0,150935
435,000000, 0,149608
434,000000, 0,148036
433,000000, 0,146277
432,000000, 0,144867
431,000000, 0,143401
430,000000, 0,141338
429,000000, 0,139225
428,000000, 0,137653
427,000000, 0,135618
426,000000, 0,133366
425,000000, 0,131315
424,000000, 0,129332
423,000000, 0,127059
422,000000, 0,125131
421,000000, 0,123087
420,000000, 0,120938
419,000000, 0,118949
418,000000, 0,116529
417,000000, 0,114391
416,000000, 0,112640
415,000000, 0,110286
414,000000, 0,108421
413,000000, 0,106897
412,000000, 0,104936
411,000000, 0,102928
410,000000, 0,101184
409,000000, 0,099634
408,000000, 0,098046
407,000000, 0,096507
406,000000, 0,095216
405,000000, 0,093759
404,000000, 0,092788
403,000000, 0,091467
402,000000, 0,090527
401,000000, 0,089735
400,000000, 0,089141
399,000000, 0,088449
398,000000, 0,088001
397,000000, 0,087449
396,000000, 0,087193
395,000000, 0,087358
394,000000, 0,087366
393,000000, 0,087221
392,000000, 0,087518
391,000000, 0,088108
390,000000, 0,088804
389,000000, 0,089213
388,000000, 0,090276
387,000000, 0,091493
386,000000, 0,092852
385,000000, 0,094118
384,000000, 0,095192
383,000000, 0,095903
382,000000, 0,097263
381,000000, 0,098758
380,000000, 0,099801
379,000000, 0,100282
378,000000, 0,101315
377,000000, 0,102450
376,000000, 0,102662
375,000000, 0,103453
374,000000, 0,104300
373,000000, 0,103998
372,000000, 0,105724
371,000000, 0,106458
370,000000, 0,107860
369,000000, 0,109651
368,000000, 0,110489
367,000000, 0,112347
366,000000, 0,114080
365,000000, 0,115618
364,000000, 0,117477
363,000000, 0,120136
362,000000, 0,121617
361,000000, 0,124649
360,000000, 0,127930
359,000000, 0,130441
358,000000, 0,134001
357,000000, 0,136907
356,000000, 0,140839
355,000000, 0,144469
354,000000, 0,149014
353,000000, 0,153812
352,000000, 0,158652
351,000000, 0,164364
350,000000, 0,170024
349,000000, 0,177189
348,000000, 0,184281
347,000000, 0,192026
346,000000, 0,200097
345,000000, 0,207902
344,000000, 0,216465
343,000000, 0,225374
342,000000, 0,235606
341,000000, 0,245035
340,000000, 0,255977
339,000000, 0,266276
338,000000, 0,278423
337,000000, 0,288742
336,000000, 0,300594
335,000000, 0,311844
334,000000, 0,323306
333,000000, 0,335889
332,000000, 0,349023
331,000000, 0,361825
330,000000, 0,373882
329,000000, 0,388437
328,000000, 0,402164
327,000000, 0,415106
326,000000, 0,429949
325,000000, 0,444771
324,000000, 0,460326
323,000000, 0,475237
322,000000, 0,490884
321,000000, 0,508870
320,000000, 0,526538
319,000000, 0,549164
318,000000, 0,569406
317,000000, 0,590176
316,000000, 0,612806
315,000000, 0,633719
314,000000, 0,654407
313,000000, 0,675865
312,000000, 0,695033
311,000000, 0,712027
310,000000, 0,729111
309,000000, 0,741920
308,000000, 0,756619
307,000000, 0,766582
306,000000, 0,777711
305,000000, 0,785635
304,000000, 0,792614
303,000000, 0,798716
302,000000, 0,805509
301,000000, 0,810503
300,000000, 0,815919
299,000000, 0,820248
298,000000, 0,823180
297,000000, 0,825444
296,000000, 0,826207
295,000000, 0,824682
294,000000, 0,821815
293,000000, 0,817326
292,000000, 0,812529
291,000000, 0,806542
290,000000, 0,800434
289,000000, 0,793986
288,000000, 0,789435
287,000000, 0,784688
286,000000, 0,781264
285,000000, 0,779910
284,000000, 0,782771
283,000000, 0,791751
282,000000, 0,807529
281,000000, 0,836370
280,000000, 0,868046
279,000000, 0,895702
278,000000, 0,908461
277,000000, 0,903624
276,000000, 0,893175
275,000000, 0,892959
274,000000, 0,907396
273,000000, 0,932153
272,000000, 0,953193
271,000000, 0,964589
270,000000, 0,963738
269,000000, 0,958403
268,000000, 0,957145
267,000000, 0,962086
266,000000, 0,971389
265,000000, 0,980798
264,000000, 0,985875
263,000000, 0,987719
262,000000, 0,991024
261,000000, 0,995351
260,000000, 1,001723
259,000000, 1,010079
258,000000, 1,020037
257,000000, 1,030272
256,000000, 1,040655
255,000000, 1,050596
254,000000, 1,062866
253,000000, 1,075770
252,000000, 1,089160
251,000000, 1,102333
250,000000, 1,114525
